 frequency       gain_vv         gain_db         phase_deg      
 1.00000000e-03  5.59995758e-10 -1.85036305e+02 -1.57139026e+00 
 1.02920053e-03  6.10498688e-10 -1.84286305e+02 -1.57140760e+00 
 1.05925373e-03  6.65556200e-10 -1.83536305e+02 -1.57142545e+00 
 1.09018449e-03  7.25579044e-10 -1.82786305e+02 -1.57144382e+00 
 1.12201845e-03  7.91015018e-10 -1.82036305e+02 -1.57146273e+00 
 1.15478198e-03  8.62352301e-10 -1.81286305e+02 -1.57148218e+00 
 1.18850223e-03  9.40123101e-10 -1.80536306e+02 -1.57150221e+00 
 1.22320712e-03  1.02490762e-09 -1.79786306e+02 -1.57152282e+00 
 1.25892541e-03  1.11733839e-09 -1.79036306e+02 -1.57154404e+00 
 1.29568670e-03  1.21810497e-09 -1.78286306e+02 -1.57156587e+00 
 1.33352143e-03  1.32795914e-09 -1.77536306e+02 -1.57158834e+00 
 1.37246096e-03  1.44772045e-09 -1.76786306e+02 -1.57161147e+00 
 1.41253754e-03  1.57828237e-09 -1.76036306e+02 -1.57163527e+00 
 1.45378439e-03  1.72061895e-09 -1.75286306e+02 -1.57165977e+00 
 1.49623566e-03  1.87579208e-09 -1.74536306e+02 -1.57168498e+00 
 1.53992653e-03  2.04495942e-09 -1.73786306e+02 -1.57171093e+00 
 1.58489319e-03  2.22938303e-09 -1.73036306e+02 -1.57173764e+00 
 1.63117291e-03  2.43043878e-09 -1.72286306e+02 -1.57176513e+00 
 1.67880402e-03  2.64962664e-09 -1.71536306e+02 -1.57179342e+00 
 1.72782598e-03  2.88858184e-09 -1.70786306e+02 -1.57182253e+00 
 1.77827941e-03  3.14908708e-09 -1.70036307e+02 -1.57185250e+00 
 1.83020611e-03  3.43308586e-09 -1.69286307e+02 -1.57188334e+00 
 1.88364909e-03  3.74269691e-09 -1.68536307e+02 -1.57191508e+00 
 1.93865264e-03  4.08023007e-09 -1.67786307e+02 -1.57194775e+00 
 1.99526231e-03  4.44820348e-09 -1.67036307e+02 -1.57198137e+00 
 2.05352503e-03  4.84936237e-09 -1.66286307e+02 -1.57201597e+00 
 2.11348904e-03  5.28669956e-09 -1.65536307e+02 -1.57205159e+00 
 2.17520403e-03  5.76347777e-09 -1.64786308e+02 -1.57208824e+00 
 2.23872114e-03  6.28325396e-09 -1.64036308e+02 -1.57212597e+00 
 2.30409298e-03  6.84990588e-09 -1.63286308e+02 -1.57216479e+00 
 2.37137371e-03  7.46766100e-09 -1.62536308e+02 -1.57220475e+00 
 2.44061907e-03  8.14112802e-09 -1.61786308e+02 -1.57224588e+00 
 2.51188643e-03  8.87533130e-09 -1.61036309e+02 -1.57228821e+00 
 2.58523484e-03  9.67574829e-09 -1.60286309e+02 -1.57233177e+00 
 2.66072506e-03  1.05483504e-08 -1.59536309e+02 -1.57237661e+00 
 2.73841963e-03  1.14996477e-08 -1.58786309e+02 -1.57242275e+00 
 2.81838293e-03  1.25367372e-08 -1.58036310e+02 -1.57247024e+00 
 2.90068120e-03  1.36673561e-08 -1.57286310e+02 -1.57251912e+00 
 2.98538262e-03  1.48999391e-08 -1.56536310e+02 -1.57256943e+00 
 3.07255737e-03  1.62436819e-08 -1.55786310e+02 -1.57262121e+00 
 3.16227766e-03  1.77086094e-08 -1.55036311e+02 -1.57267449e+00 
 3.25461783e-03  1.93056506e-08 -1.54286311e+02 -1.57272934e+00 
 3.34965439e-03  2.10467199e-08 -1.53536312e+02 -1.57278578e+00 
 3.44746607e-03  2.29448066e-08 -1.52786312e+02 -1.57284388e+00 
 3.54813389e-03  2.50140711e-08 -1.52036312e+02 -1.57290366e+00 
 3.65174127e-03  2.72699510e-08 -1.51286313e+02 -1.57296520e+00 
 3.75837404e-03  2.97292760e-08 -1.50536313e+02 -1.57302853e+00 
 3.86812055e-03  3.24103937e-08 -1.49786314e+02 -1.57309371e+00 
 3.98107171e-03  3.53333064e-08 -1.49036314e+02 -1.57316080e+00 
 4.09732110e-03  3.85198202e-08 -1.48286315e+02 -1.57322984e+00 
 4.21696503e-03  4.19937076e-08 -1.47536316e+02 -1.57330090e+00 
 4.34010264e-03  4.57808854e-08 -1.46786316e+02 -1.57337404e+00 
 4.46683592e-03  4.99096074e-08 -1.46036317e+02 -1.57344931e+00 
 4.59726989e-03  5.44106754e-08 -1.45286318e+02 -1.57352678e+00 
 4.73151259e-03  5.93176693e-08 -1.44536318e+02 -1.57360651e+00 
 4.86967525e-03  6.46671971e-08 -1.43786319e+02 -1.57368856e+00 
 5.01187234e-03  7.04991684e-08 -1.43036320e+02 -1.57377302e+00 
 5.15822165e-03  7.68570920e-08 -1.42286321e+02 -1.57385994e+00 
 5.30884444e-03  8.37884005e-08 -1.41536322e+02 -1.57394940e+00 
 5.46386550e-03  9.13448041e-08 -1.40786323e+02 -1.57404147e+00 
 5.62341325e-03  9.95826764e-08 -1.40036324e+02 -1.57413623e+00 
 5.78761988e-03  1.08563475e-07 -1.39286325e+02 -1.57423376e+00 
 5.95662144e-03  1.18354200e-07 -1.38536326e+02 -1.57433413e+00 
 6.13055792e-03  1.29027895e-07 -1.37786328e+02 -1.57443744e+00 
 6.30957344e-03  1.40664188e-07 -1.37036329e+02 -1.57454376e+00 
 6.49381632e-03  1.53349890e-07 -1.36286331e+02 -1.57465319e+00 
 6.68343918e-03  1.67179643e-07 -1.35536332e+02 -1.57476581e+00 
 6.87859912e-03  1.82256620e-07 -1.34786334e+02 -1.57488172e+00 
 7.07945784e-03  1.98693301e-07 -1.34036336e+02 -1.57500101e+00 
 7.28618175e-03  2.16612310e-07 -1.33286337e+02 -1.57512379e+00 
 7.49894209e-03  2.36147328e-07 -1.32536339e+02 -1.57525016e+00 
 7.71791516e-03  2.57444094e-07 -1.31786341e+02 -1.57538021e+00 
 7.94328235e-03  2.80661489e-07 -1.31036343e+02 -1.57551406e+00 
 8.17523038e-03  3.05972722e-07 -1.30286346e+02 -1.57565182e+00 
 8.41395142e-03  3.33566623e-07 -1.29536348e+02 -1.57579361e+00 
 8.65964323e-03  3.63649051e-07 -1.28786351e+02 -1.57593953e+00 
 8.91250938e-03  3.96444431e-07 -1.28036354e+02 -1.57608971e+00 
 9.17275935e-03  4.32197427e-07 -1.27286356e+02 -1.57624428e+00 
 9.44060876e-03  4.71174766e-07 -1.26536360e+02 -1.57640336e+00 
 9.71627952e-03  5.13667231e-07 -1.25786363e+02 -1.57656709e+00 
 1.00000000e-02  5.59991827e-07 -1.25036366e+02 -1.57673560e+00 
 1.02920053e-02  6.10494150e-07 -1.24286370e+02 -1.57690903e+00 
 1.05925373e-02  6.65550958e-07 -1.23536374e+02 -1.57708752e+00 
 1.09018449e-02  7.25572992e-07 -1.22786378e+02 -1.57727123e+00 
 1.12201845e-02  7.91008029e-07 -1.22036382e+02 -1.57746030e+00 
 1.15478198e-02  8.62344230e-07 -1.21286387e+02 -1.57765489e+00 
 1.18850223e-02  9.40113780e-07 -1.20536392e+02 -1.57785516e+00 
 1.22320712e-02  1.02489686e-06 -1.19786397e+02 -1.57806128e+00 
 1.25892541e-02  1.11732596e-06 -1.19036402e+02 -1.57827342e+00 
 1.29568670e-02  1.21809062e-06 -1.18286408e+02 -1.57849175e+00 
 1.33352143e-02  1.32794257e-06 -1.17536414e+02 -1.57871646e+00 
 1.37246096e-02  1.44770131e-06 -1.16786421e+02 -1.57894773e+00 
 1.41253754e-02  1.57826027e-06 -1.16036428e+02 -1.57918576e+00 
 1.45378439e-02  1.72059343e-06 -1.15286435e+02 -1.57943073e+00 
 1.49623566e-02  1.87576261e-06 -1.14536443e+02 -1.57968286e+00 
 1.53992653e-02  2.04492539e-06 -1.13786451e+02 -1.57994234e+00 
 1.58489319e-02  2.22934372e-06 -1.13036459e+02 -1.58020941e+00 
 1.63117291e-02  2.43039339e-06 -1.12286468e+02 -1.58048427e+00 
 1.67880402e-02  2.64957422e-06 -1.11536478e+02 -1.58076716e+00 
 1.72782598e-02  2.88852131e-06 -1.10786488e+02 -1.58105831e+00 
 1.77827941e-02  3.14901719e-06 -1.10036499e+02 -1.58135796e+00 
 1.83020611e-02  3.43300515e-06 -1.09286511e+02 -1.58166637e+00 
 1.88364909e-02  3.74260371e-06 -1.08536523e+02 -1.58198377e+00 
 1.93865264e-02  4.08012244e-06 -1.07786536e+02 -1.58231045e+00 
 1.99526231e-02  4.44807919e-06 -1.07036550e+02 -1.58264666e+00 
 2.05352503e-02  4.84921884e-06 -1.06286564e+02 -1.58299269e+00 
 2.11348904e-02  5.28653382e-06 -1.05536580e+02 -1.58334882e+00 
 2.17520403e-02  5.76328637e-06 -1.04786596e+02 -1.58371535e+00 
 2.23872114e-02  6.28303294e-06 -1.04036613e+02 -1.58409259e+00 
 2.30409298e-02  6.84965066e-06 -1.03286632e+02 -1.58448084e+00 
 2.37137371e-02  7.46736627e-06 -1.02536651e+02 -1.58488042e+00 
 2.44061907e-02  8.14078768e-06 -1.01786671e+02 -1.58529167e+00 
 2.51188643e-02  8.87493828e-06 -1.01036693e+02 -1.58571493e+00 
 2.58523484e-02  9.67529444e-06 -1.00286716e+02 -1.58615055e+00 
 2.66072506e-02  1.05478263e-05 -9.95367406e+01 -1.58659889e+00 
 2.73841963e-02  1.14990425e-05 -9.87867664e+01 -1.58706032e+00 
 2.81838293e-02  1.25360383e-05 -9.80367938e+01 -1.58753522e+00 
 2.90068120e-02  1.36665490e-05 -9.72868228e+01 -1.58802399e+00 
 2.98538262e-02  1.48990071e-05 -9.65368535e+01 -1.58852702e+00 
 3.07255737e-02  1.62426057e-05 -9.57868860e+01 -1.58904475e+00 
 3.16227766e-02  1.77073666e-05 -9.50369204e+01 -1.58957759e+00 
 3.25461783e-02  1.93042154e-05 -9.42869569e+01 -1.59012599e+00 
 3.34965439e-02  2.10450626e-05 -9.35369955e+01 -1.59069040e+00 
 3.44746607e-02  2.29428928e-05 -9.27870365e+01 -1.59127128e+00 
 3.54813389e-02  2.50118611e-05 -9.20370798e+01 -1.59186913e+00 
 3.65174127e-02  2.72673989e-05 -9.12871258e+01 -1.59248443e+00 
 3.75837404e-02  2.97263289e-05 -9.05371744e+01 -1.59311770e+00 
 3.86812055e-02  3.24069905e-05 -8.97872260e+01 -1.59376945e+00 
 3.98107171e-02  3.53293765e-05 -8.90372806e+01 -1.59444023e+00 
 4.09732110e-02  3.85152819e-05 -8.82873384e+01 -1.59513060e+00 
 4.21696503e-02  4.19884670e-05 -8.75373996e+01 -1.59584112e+00 
 4.34010264e-02  4.57748337e-05 -8.67874645e+01 -1.59657238e+00 
 4.46683592e-02  4.99026190e-05 -8.60375332e+01 -1.59732499e+00 
 4.59726989e-02  5.44026055e-05 -8.52876060e+01 -1.59809957e+00 
 4.73151259e-02  5.93083504e-05 -8.45376831e+01 -1.59889676e+00 
 4.86967525e-02  6.46564359e-05 -8.37877648e+01 -1.59971723e+00 
 5.01187234e-02  7.04867417e-05 -8.30378513e+01 -1.60056164e+00 
 5.15822165e-02  7.68427420e-05 -8.22879429e+01 -1.60143071e+00 
 5.30884444e-02  8.37718296e-05 -8.15380400e+01 -1.60232514e+00 
 5.46386550e-02  9.13256685e-05 -8.07881428e+01 -1.60324568e+00 
 5.62341325e-02  9.95605792e-05 -8.00382517e+01 -1.60419309e+00 
 5.78761988e-02  1.08537958e-04 -7.92883671e+01 -1.60516815e+00 
 5.95662144e-02  1.18324734e-04 -7.85384893e+01 -1.60617167e+00 
 6.13055792e-02  1.28993868e-04 -7.77886187e+01 -1.60720448e+00 
 6.30957344e-02  1.40624895e-04 -7.70387558e+01 -1.60826744e+00 
 6.49381632e-02  1.53304517e-04 -7.62889010e+01 -1.60936142e+00 
 6.68343918e-02  1.67127247e-04 -7.55390548e+01 -1.61048732e+00 
 6.87859912e-02  1.82196116e-04 -7.47892177e+01 -1.61164608e+00 
 7.07945784e-02  1.98623433e-04 -7.40393903e+01 -1.61283866e+00 
 7.28618175e-02  2.16531630e-04 -7.32895731e+01 -1.61406604e+00 
 7.49894209e-02  2.36054163e-04 -7.25397667e+01 -1.61532923e+00 
 7.71791516e-02  2.57336512e-04 -7.17899718e+01 -1.61662928e+00 
 7.94328235e-02  2.80537258e-04 -7.10401890e+01 -1.61796727e+00 
 8.17523038e-02  3.05829266e-04 -7.02904192e+01 -1.61934429e+00 
 8.41395142e-02  3.33400968e-04 -6.95406629e+01 -1.62076148e+00 
 8.65964323e-02  3.63457762e-04 -6.87909210e+01 -1.62222002e+00 
 8.91250938e-02  3.96223541e-04 -6.80411945e+01 -1.62372111e+00 
 9.17275935e-02  4.31942356e-04 -6.72914841e+01 -1.62526598e+00 
 9.44060876e-02  4.70880226e-04 -6.65417909e+01 -1.62685592e+00 
 9.71627952e-02  5.13327115e-04 -6.57921159e+01 -1.62849222e+00 
 1.00000000e-01  5.59599085e-04 -6.50424601e+01 -1.63017625e+00 
 1.02920053e-01  6.10040638e-04 -6.42928247e+01 -1.63190938e+00 
 1.05925373e-01  6.65027277e-04 -6.35432108e+01 -1.63369306e+00 
 1.09018449e-01  7.24968285e-04 -6.27936198e+01 -1.63552874e+00 
 1.12201845e-01  7.90309762e-04 -6.20440531e+01 -1.63741794e+00 
 1.15478198e-01  8.61537930e-04 -6.12945119e+01 -1.63936221e+00 
 1.18850223e-01  9.39182736e-04 -6.05449980e+01 -1.64136316e+00 
 1.22320712e-01  1.02382177e-03 -5.97955128e+01 -1.64342242e+00 
 1.25892541e-01  1.11608455e-03 -5.90460580e+01 -1.64554170e+00 
 1.29568670e-01  1.21665717e-03 -5.82966356e+01 -1.64772273e+00 
 1.33352143e-01  1.32628738e-03 -5.75472473e+01 -1.64996731e+00 
 1.37246096e-01  1.44579008e-03 -5.67978952e+01 -1.65227727e+00 
 1.41253754e-01  1.57605341e-03 -5.60485814e+01 -1.65465452e+00 
 1.45378439e-01  1.71804521e-03 -5.52993082e+01 -1.65710100e+00 
 1.49623566e-01  1.87282026e-03 -5.45500780e+01 -1.65961873e+00 
 1.53992653e-01  2.04152796e-03 -5.38008934e+01 -1.66220975e+00 
 1.58489319e-01  2.22542085e-03 -5.30517569e+01 -1.66487619e+00 
 1.63117291e-01  2.42586385e-03 -5.23026715e+01 -1.66762024e+00 
 1.67880402e-01  2.64434422e-03 -5.15536402e+01 -1.67044413e+00 
 1.72782598e-01  2.88248257e-03 -5.08046662e+01 -1.67335018e+00 
 1.77827941e-01  3.14204471e-03 -5.00557528e+01 -1.67634074e+00 
 1.83020611e-01  3.42495461e-03 -4.93069036e+01 -1.67941827e+00 
 1.88364909e-01  3.73330851e-03 -4.85581224e+01 -1.68258527e+00 
 1.93865264e-01  4.06939024e-03 -4.78094132e+01 -1.68584431e+00 
 1.99526231e-01  4.43568795e-03 -4.70607803e+01 -1.68919804e+00 
 2.05352503e-01  4.83491225e-03 -4.63122281e+01 -1.69264919e+00 
 2.11348904e-01  5.27001599e-03 -4.55637613e+01 -1.69620055e+00 
 2.17520403e-01  5.74421574e-03 -4.48153851e+01 -1.69985500e+00 
 2.23872114e-01  6.26101525e-03 -4.40671048e+01 -1.70361550e+00 
 2.30409298e-01  6.82423080e-03 -4.33189259e+01 -1.70748508e+00 
 2.37137371e-01  7.43801894e-03 -4.25708544e+01 -1.71146686e+00 
 2.44061907e-01  8.10690654e-03 -4.18228967e+01 -1.71556405e+00 
 2.51188643e-01  8.83582351e-03 -4.10750594e+01 -1.71977994e+00 
 2.58523484e-01  9.63013831e-03 -4.03273495e+01 -1.72411792e+00 
 2.66072506e-01  1.04956966e-02 -3.95797746e+01 -1.72858145e+00 
 2.73841963e-01  1.14388634e-02 -3.88323426e+01 -1.73317410e+00 
 2.81838293e-01  1.24665681e-02 -3.80850617e+01 -1.73789954e+00 
 2.90068120e-01  1.35863548e-02 -3.73379410e+01 -1.74276152e+00 
 2.98538262e-01  1.48064355e-02 -3.65909896e+01 -1.74776390e+00 
 3.07255737e-01  1.61357488e-02 -3.58442175e+01 -1.75291065e+00 
 3.16227766e-01  1.75840228e-02 -3.50976353e+01 -1.75820582e+00 
 3.25461783e-01  1.91618444e-02 -3.43512538e+01 -1.76365358e+00 
 3.34965439e-01  2.08807337e-02 -3.36050849e+01 -1.76925822e+00 
 3.44746607e-01  2.27532247e-02 -3.28591409e+01 -1.77502410e+00 
 3.54813389e-01  2.47929530e-02 -3.21134349e+01 -1.78095574e+00 
 3.65174127e-01  2.70147511e-02 -3.13679806e+01 -1.78705773e+00 
 3.75837404e-01  2.94347508e-02 -3.06227927e+01 -1.79333480e+00 
 3.86812055e-01  3.20704951e-02 -2.98778867e+01 -1.79979178e+00 
 3.98107171e-01  3.49410588e-02 -2.91332788e+01 -1.80643363e+00 
 4.09732110e-01  3.80671786e-02 -2.83889862e+01 -1.81326542e+00 
 4.21696503e-01  4.14713949e-02 -2.76450271e+01 -1.82029234e+00 
 4.34010264e-01  4.51782038e-02 -2.69014208e+01 -1.82751971e+00 
 4.46683592e-01  4.92142224e-02 -2.61581875e+01 -1.83495296e+00 
 4.59726989e-01  5.36083665e-02 -2.54153485e+01 -1.84259766e+00 
 4.73151259e-01  5.83920431e-02 -2.46729266e+01 -1.85045947e+00 
 4.86967525e-01  6.35993574e-02 -2.39309454e+01 -1.85854421e+00 
 5.01187234e-01  6.92673361e-02 -2.31894303e+01 -1.86685781e+00 
 5.15822165e-01  7.54361681e-02 -2.24484076e+01 -1.87540630e+00 
 5.30884444e-01  8.21494636e-02 -2.17079054e+01 -1.88419588e+00 
 5.46386550e-01  8.94545320e-02 -2.09679530e+01 -1.89323282e+00 
 5.62341325e-01  9.74026820e-02 -2.02285817e+01 -1.90252356e+00 
 5.78761988e-01  1.06049542e-01 -1.94898240e+01 -1.91207461e+00 
 5.95662144e-01  1.15455406e-01 -1.87517146e+01 -1.92189264e+00 
 6.13055792e-01  1.25685600e-01 -1.80142895e+01 -1.93198442e+00 
 6.30957344e-01  1.36810882e-01 -1.72775872e+01 -1.94235680e+00 
 6.49381632e-01  1.48907859e-01 -1.65416476e+01 -1.95301680e+00 
 6.68343918e-01  1.62059444e-01 -1.58065131e+01 -1.96397148e+00 
 6.87859912e-01  1.76355331e-01 -1.50722282e+01 -1.97522805e+00 
 7.07945784e-01  1.91892513e-01 -1.43388394e+01 -1.98679378e+00 
 7.28618175e-01  2.08775823e-01 -1.36063959e+01 -1.99867605e+00 
 7.49894209e-01  2.27118517e-01 -1.28749491e+01 -2.01088229e+00 
 7.71791516e-01  2.47042882e-01 -1.21445531e+01 -2.02342005e+00 
 7.94328235e-01  2.68680889e-01 -1.14152645e+01 -2.03629690e+00 
 8.17523038e-01  2.92174874e-01 -1.06871427e+01 -2.04952048e+00 
 8.41395142e-01  3.17678265e-01 -9.96024996e+00 -2.06309850e+00 
 8.65964323e-01  3.45356336e-01 -9.23465143e+00 -2.07703865e+00 
 8.91250938e-01  3.75387007e-01 -8.51041528e+00 -2.09134870e+00 
 9.17275935e-01  4.07961670e-01 -7.78761278e+00 -2.10603640e+00 
 9.44060876e-01  4.43286064e-01 -7.06631843e+00 -2.12110947e+00 
 9.71627952e-01  4.81581173e-01 -6.34660999e+00 -2.13657566e+00 
 1.00000000e+00  5.23084160e-01 -5.62856861e+00 -2.15244264e+00 
 1.02920053e+00  5.68049335e-01 -4.91227889e+00 -2.16871803e+00 
 1.05925373e+00  6.16749142e-01 -4.19782892e+00 -2.18540941e+00 
 1.09018449e+00  6.69475178e-01 -3.48531041e+00 -2.20252421e+00 
 1.12201845e+00  7.26539223e-01 -2.77481870e+00 -2.22006978e+00 
 1.15478198e+00  7.88274285e-01 -2.06645282e+00 -2.23805333e+00 
 1.18850223e+00  8.55035652e-01 -1.36031553e+00 -2.25648189e+00 
 1.22320712e+00  9.27201941e-01 -6.56513360e-01 -2.27536231e+00 
 1.25892541e+00  1.00517614e+00  4.48433875e-02 -2.29470124e+00 
 1.29568670e+00  1.08938661e+00  7.43640630e-01 -2.31450507e+00 
 1.33352143e+00  1.18028809e+00  1.43976051e+00 -2.33477994e+00 
 1.37246096e+00  1.27836265e+00  2.13308143e+00 -2.35553169e+00 
 1.41253754e+00  1.38412051e+00  2.82347809e+00 -2.37676583e+00 
 1.45378439e+00  1.49810094e+00  3.51082153e+00 -2.39848753e+00 
 1.49623566e+00  1.62087290e+00  4.19497923e+00 -2.42070158e+00 
 1.53992653e+00  1.75303570e+00  4.87581519e+00 -2.44341234e+00 
 1.58489319e+00  1.89521944e+00  5.55319006e+00 -2.46662374e+00 
 1.63117291e+00  2.04808540e+00  6.22696125e+00 -2.49033924e+00 
 1.67880402e+00  2.21232616e+00  6.89698310e+00 -2.51456180e+00 
 1.72782598e+00  2.38866558e+00  7.56310705e+00 -2.53929386e+00 
 1.77827941e+00  2.57785859e+00  8.22518181e+00 -2.56453728e+00 
 1.83020611e+00  2.78069068e+00  8.88305364e+00 -2.59029336e+00 
 1.88364909e+00  2.99797719e+00  9.53656648e+00 -2.61656279e+00 
 1.93865264e+00  3.23056226e+00  1.01855623e+01 -2.64334561e+00 
 1.99526231e+00  3.47931752e+00  1.08298813e+01 -2.67064123e+00 
 2.05352503e+00  3.74514044e+00  1.14693622e+01 -2.69844838e+00 
 2.11348904e+00  4.02895229e+00  1.21038425e+01 -2.72676507e+00 
 2.17520403e+00  4.33169577e+00  1.27331589e+01 -2.75558865e+00 
 2.23872114e+00  4.65433227e+00  1.33571477e+01 -2.78491570e+00 
 2.30409298e+00  4.99783865e+00  1.39756446e+01 -2.81474211e+00 
 2.37137371e+00  5.36320365e+00  1.45884858e+01 -2.84506300e+00 
 2.44061907e+00  5.75142393e+00  1.51955076e+01 -2.87587274e+00 
 2.51188643e+00  6.16349957e+00  1.57965474e+01 -2.90716496e+00 
 2.58523484e+00  6.60042919e+00  1.63914435e+01 -2.93893255e+00 
 2.66072506e+00  7.06320469e+00  1.69800358e+01 -2.97116761e+00 
 2.73841963e+00  7.55280547e+00  1.75621660e+01 -3.00386153e+00 
 2.81838293e+00  8.07019233e+00  1.81376777e+01 -3.03700494e+00 
 2.90068120e+00  8.61630095e+00  1.87064172e+01 -3.07058772e+00 
 2.98538262e+00  9.19203503e+00  1.92682334e+01 -3.10459906e+00 
 3.07255737e+00  9.79825907e+00  1.98229784e+01 -3.13902741e+00 
 3.16227766e+00  1.04357909e+01  2.03705074e+01  3.10932479e+00 
 3.25461783e+00  1.11053940e+01  2.09106794e+01  3.07409984e+00 
 3.34965439e+00  1.18077695e+01  2.14433573e+01  3.03849667e+00 
 3.44746607e+00  1.25435484e+01  2.19684082e+01  3.00252953e+00 
 3.54813389e+00  1.33132832e+01  2.24857034e+01  2.96621333e+00 
 3.65174127e+00  1.41174400e+01  2.29951190e+01  2.92956358e+00 
 3.75837404e+00  1.49563909e+01  2.34965361e+01  2.89259642e+00 
 3.86812055e+00  1.58304055e+01  2.39898408e+01  2.85532856e+00 
 3.98107171e+00  1.67396443e+01  2.44749245e+01  2.81777728e+00 
 4.09732110e+00  1.76841512e+01  2.49516844e+01  2.77996040e+00 
 4.21696503e+00  1.86638471e+01  2.54200233e+01  2.74189628e+00 
 4.34010264e+00  1.96785237e+01  2.58798503e+01  2.70360377e+00 
 4.46683592e+00  2.07278388e+01  2.63310804e+01  2.66510222e+00 
 4.59726989e+00  2.18113113e+01  2.67736355e+01  2.62641143e+00 
 4.73151259e+00  2.29283179e+01  2.72074439e+01  2.58755164e+00 
 4.86967525e+00  2.40780906e+01  2.76324409e+01  2.54854349e+00 
 5.01187234e+00  2.52597155e+01  2.80485691e+01  2.50940802e+00 
 5.15822165e+00  2.64721317e+01  2.84557783e+01  2.47016660e+00 
 5.30884444e+00  2.77141333e+01  2.88540260e+01  2.43084095e+00 
 5.46386550e+00  2.89843708e+01  2.92432775e+01  2.39145305e+00 
 5.62341325e+00  3.02813551e+01  2.96235061e+01  2.35202515e+00 
 5.78761988e+00  3.16034624e+01  2.99946933e+01  2.31257971e+00 
 5.95662144e+00  3.29489400e+01  3.03568289e+01  2.27313935e+00 
 6.13055792e+00  3.43159142e+01  3.07099115e+01  2.23372683e+00 
 6.30957344e+00  3.57023990e+01  3.10539480e+01  2.19436499e+00 
 6.49381632e+00  3.71063060e+01  3.13889544e+01  2.15507672e+00 
