 frequency       gain_vv         gain_db         phase_deg      
 1.00000000e-03  2.87791437e-10 -1.90818443e+02 -1.57144935e+00 
 1.02920053e-03  3.13745760e-10 -1.90068443e+02 -1.57146842e+00 
 1.05925373e-03  3.42040760e-10 -1.89318443e+02 -1.57148804e+00 
 1.09018449e-03  3.72887530e-10 -1.88568443e+02 -1.57150824e+00 
 1.12201845e-03  4.06516201e-10 -1.87818443e+02 -1.57152903e+00 
 1.15478198e-03  4.43177655e-10 -1.87068443e+02 -1.57155042e+00 
 1.18850223e-03  4.83145404e-10 -1.86318443e+02 -1.57157244e+00 
 1.22320712e-03  5.26717624e-10 -1.85568443e+02 -1.57159511e+00 
 1.25892541e-03  5.74219381e-10 -1.84818443e+02 -1.57161843e+00 
 1.29568670e-03  6.26005060e-10 -1.84068443e+02 -1.57164244e+00 
 1.33352143e-03  6.82461003e-10 -1.83318443e+02 -1.57166714e+00 
 1.37246096e-03  7.44008396e-10 -1.82568443e+02 -1.57169257e+00 
 1.41253754e-03  8.11106409e-10 -1.81818443e+02 -1.57171874e+00 
 1.45378439e-03  8.84255620e-10 -1.81068443e+02 -1.57174568e+00 
 1.49623566e-03  9.64001755e-10 -1.80318444e+02 -1.57177340e+00 
 1.53992653e-03  1.05093975e-09 -1.79568444e+02 -1.57180193e+00 
 1.58489319e-03  1.14571821e-09 -1.78818444e+02 -1.57183129e+00 
 1.63117291e-03  1.24904421e-09 -1.78068444e+02 -1.57186152e+00 
 1.67880402e-03  1.36168861e-09 -1.77318444e+02 -1.57189262e+00 
 1.72782598e-03  1.48449178e-09 -1.76568444e+02 -1.57192463e+00 
 1.77827941e-03  1.61836990e-09 -1.75818444e+02 -1.57195758e+00 
 1.83020611e-03  1.76432174e-09 -1.75068444e+02 -1.57199149e+00 
 1.88364909e-03  1.92343617e-09 -1.74318444e+02 -1.57202639e+00 
 1.93865264e-03  2.09690025e-09 -1.73568445e+02 -1.57206231e+00 
 1.99526231e-03  2.28600810e-09 -1.72818445e+02 -1.57209927e+00 
 2.05352503e-03  2.49217053e-09 -1.72068445e+02 -1.57213732e+00 
 2.11348904e-03  2.71692561e-09 -1.71318445e+02 -1.57217648e+00 
 2.17520403e-03  2.96195010e-09 -1.70568445e+02 -1.57221678e+00 
 2.23872114e-03  3.22907200e-09 -1.69818445e+02 -1.57225826e+00 
 2.30409298e-03  3.52028414e-09 -1.69068446e+02 -1.57230095e+00 
 2.37137371e-03  3.83775908e-09 -1.68318446e+02 -1.57234488e+00 
 2.44061907e-03  4.18386532e-09 -1.67568446e+02 -1.57239010e+00 
 2.51188643e-03  4.56118496e-09 -1.66818446e+02 -1.57243664e+00 
 2.58523484e-03  4.97253297e-09 -1.66068447e+02 -1.57248454e+00 
 2.66072506e-03  5.42097816e-09 -1.65318447e+02 -1.57253383e+00 
 2.73841963e-03  5.90986612e-09 -1.64568447e+02 -1.57258457e+00 
 2.81838293e-03  6.44284417e-09 -1.63818447e+02 -1.57263679e+00 
 2.90068120e-03  7.02388854e-09 -1.63068448e+02 -1.57269053e+00 
 2.98538262e-03  7.65733406e-09 -1.62318448e+02 -1.57274584e+00 
 3.07255737e-03  8.34790650e-09 -1.61568448e+02 -1.57280277e+00 
 3.16227766e-03  9.10075780e-09 -1.60818449e+02 -1.57286136e+00 
 3.25461783e-03  9.92150456e-09 -1.60068449e+02 -1.57292166e+00 
 3.34965439e-03  1.08162699e-08 -1.59318450e+02 -1.57298372e+00 
 3.44746607e-03  1.17917291e-08 -1.58568450e+02 -1.57304759e+00 
 3.54813389e-03  1.28551594e-08 -1.57818451e+02 -1.57311333e+00 
 3.65174127e-03  1.40144946e-08 -1.57068451e+02 -1.57318099e+00 
 3.75837404e-03  1.52783838e-08 -1.56318452e+02 -1.57325062e+00 
 3.86812055e-03  1.66562559e-08 -1.55568452e+02 -1.57332229e+00 
 3.98107171e-03  1.81583906e-08 -1.54818453e+02 -1.57339604e+00 
 4.09732110e-03  1.97959944e-08 -1.54068454e+02 -1.57347196e+00 
 4.21696503e-03  2.15812844e-08 -1.53318454e+02 -1.57355009e+00 
 4.34010264e-03  2.35275796e-08 -1.52568455e+02 -1.57363050e+00 
 4.46683592e-03  2.56494002e-08 -1.51818456e+02 -1.57371326e+00 
 4.59726989e-03  2.79625757e-08 -1.51068457e+02 -1.57379843e+00 
 4.73151259e-03  3.04843633e-08 -1.50318457e+02 -1.57388610e+00 
 4.86967525e-03  3.32335767e-08 -1.49568458e+02 -1.57397632e+00 
 5.01187234e-03  3.62307259e-08 -1.48818459e+02 -1.57406918e+00 
 5.15822165e-03  3.94981708e-08 -1.48068460e+02 -1.57416475e+00 
 5.30884444e-03  4.30602879e-08 -1.47318461e+02 -1.57426311e+00 
 5.46386550e-03  4.69436519e-08 -1.46568463e+02 -1.57436434e+00 
 5.62341325e-03  5.11772341e-08 -1.45818464e+02 -1.57446852e+00 
 5.78761988e-03  5.57926187e-08 -1.45068465e+02 -1.57457575e+00 
 5.95662144e-03  6.08242381e-08 -1.44318466e+02 -1.57468612e+00 
 6.13055792e-03  6.63096301e-08 -1.43568468e+02 -1.57479970e+00 
 6.30957344e-03  7.22897176e-08 -1.42818469e+02 -1.57491660e+00 
 6.49381632e-03  7.88091144e-08 -1.42068471e+02 -1.57503691e+00 
 6.68343918e-03  8.59164573e-08 -1.41318473e+02 -1.57516074e+00 
 6.87859912e-03  9.36647697e-08 -1.40568475e+02 -1.57528818e+00 
 7.07945784e-03  1.02111857e-07 -1.39818477e+02 -1.57541935e+00 
 7.28618175e-03  1.11320736e-07 -1.39068479e+02 -1.57555434e+00 
 7.49894209e-03  1.21360110e-07 -1.38318481e+02 -1.57569328e+00 
 7.71791516e-03  1.32304875e-07 -1.37568483e+02 -1.57583627e+00 
 7.94328235e-03  1.44236683e-07 -1.36818485e+02 -1.57598344e+00 
 8.17523038e-03  1.57244548e-07 -1.36068488e+02 -1.57613491e+00 
 8.41395142e-03  1.71425514e-07 -1.35318491e+02 -1.57629080e+00 
 8.65964323e-03  1.86885374e-07 -1.34568494e+02 -1.57645124e+00 
 8.91250938e-03  2.03739465e-07 -1.33818497e+02 -1.57661636e+00 
 9.17275935e-03  2.22113522e-07 -1.33068500e+02 -1.57678631e+00 
 9.44060876e-03  2.42144622e-07 -1.32318503e+02 -1.57696122e+00 
 9.71627952e-03  2.63982201e-07 -1.31568507e+02 -1.57714124e+00 
 1.00000000e-02  2.87789174e-07 -1.30818511e+02 -1.57732651e+00 
 1.02920053e-02  3.13743147e-07 -1.30068515e+02 -1.57751719e+00 
 1.05925373e-02  3.42037742e-07 -1.29318519e+02 -1.57771345e+00 
 1.09018449e-02  3.72884046e-07 -1.28568524e+02 -1.57791543e+00 
 1.12201845e-02  4.06512177e-07 -1.27818529e+02 -1.57812331e+00 
 1.15478198e-02  4.43173009e-07 -1.27068534e+02 -1.57833726e+00 
 1.18850223e-02  4.83140038e-07 -1.26318539e+02 -1.57855746e+00 
 1.22320712e-02  5.26711427e-07 -1.25568545e+02 -1.57878409e+00 
 1.25892541e-02  5.74212225e-07 -1.24818551e+02 -1.57901733e+00 
 1.29568670e-02  6.25996797e-07 -1.24068558e+02 -1.57925739e+00 
 1.33352143e-02  6.82451461e-07 -1.23318565e+02 -1.57950445e+00 
 1.37246096e-02  7.43997377e-07 -1.22568572e+02 -1.57975873e+00 
 1.41253754e-02  8.11093683e-07 -1.21818580e+02 -1.58002044e+00 
 1.45378439e-02  8.84240925e-07 -1.21068588e+02 -1.58028978e+00 
 1.49623566e-02  9.63984785e-07 -1.20318596e+02 -1.58056699e+00 
 1.53992653e-02  1.05092016e-06 -1.19568606e+02 -1.58085230e+00 
 1.58489319e-02  1.14569558e-06 -1.18818615e+02 -1.58114594e+00 
 1.63117291e-02  1.24901808e-06 -1.18068626e+02 -1.58144815e+00 
 1.67880402e-02  1.36165843e-06 -1.17318636e+02 -1.58175918e+00 
 1.72782598e-02  1.48445694e-06 -1.16568648e+02 -1.58207930e+00 
 1.77827941e-02  1.61832966e-06 -1.15818660e+02 -1.58240876e+00 
 1.83020611e-02  1.76427527e-06 -1.15068673e+02 -1.58274785e+00 
 1.88364909e-02  1.92338251e-06 -1.14318687e+02 -1.58309683e+00 
 1.93865264e-02  2.09683829e-06 -1.13568701e+02 -1.58345601e+00 
 1.99526231e-02  2.28593654e-06 -1.12818717e+02 -1.58382567e+00 
 2.05352503e-02  2.49208790e-06 -1.12068733e+02 -1.58420613e+00 
 2.11348904e-02  2.71683019e-06 -1.11318750e+02 -1.58459770e+00 
 2.17520403e-02  2.96183991e-06 -1.10568768e+02 -1.58500069e+00 
 2.23872114e-02  3.22894475e-06 -1.09818788e+02 -1.58541546e+00 
 2.30409298e-02  3.52013719e-06 -1.09068808e+02 -1.58584234e+00 
 2.37137371e-02  3.83758939e-06 -1.08318830e+02 -1.58628168e+00 
 2.44061907e-02  4.18366937e-06 -1.07568853e+02 -1.58673385e+00 
 2.51188643e-02  4.56095868e-06 -1.06818877e+02 -1.58719922e+00 
 2.58523484e-02  4.97227166e-06 -1.06068903e+02 -1.58767818e+00 
 2.66072506e-02  5.42067641e-06 -1.05318930e+02 -1.58817112e+00 
 2.73841963e-02  5.90951767e-06 -1.04568959e+02 -1.58867846e+00 
 2.81838293e-02  6.44244179e-06 -1.03818990e+02 -1.58920061e+00 
 2.90068120e-02  7.02342388e-06 -1.03069022e+02 -1.58973800e+00 
 2.98538262e-02  7.65679748e-06 -1.02319057e+02 -1.59029109e+00 
 3.07255737e-02  8.34728686e-06 -1.01569093e+02 -1.59086032e+00 
 3.16227766e-02  9.10004226e-06 -1.00819132e+02 -1.59144618e+00 
 3.25461783e-02  9.92067827e-06 -1.00069173e+02 -1.59204914e+00 
 3.34965439e-02  1.08153157e-05 -9.93192160e+01 -1.59266970e+00 
 3.44746607e-02  1.17906272e-05 -9.85692618e+01 -1.59330838e+00 
 3.54813389e-02  1.28538870e-05 -9.78193104e+01 -1.59396571e+00 
 3.65174127e-02  1.40130253e-05 -9.70693619e+01 -1.59464223e+00 
 3.75837404e-02  1.52766870e-05 -9.63194164e+01 -1.59533850e+00 
 3.86812055e-02  1.66542966e-05 -9.55694741e+01 -1.59605510e+00 
 3.98107171e-02  1.81561280e-05 -9.48195353e+01 -1.59679262e+00 
 4.09732110e-02  1.97933816e-05 -9.40696001e+01 -1.59755167e+00 
 4.21696503e-02  2.15782672e-05 -9.33196687e+01 -1.59833288e+00 
 4.34010264e-02  2.35240954e-05 -9.25697414e+01 -1.59913690e+00 
 4.46683592e-02  2.56453767e-05 -9.18198183e+01 -1.59996439e+00 
 4.59726989e-02  2.79579295e-05 -9.10698999e+01 -1.60081603e+00 
 4.73151259e-02  3.04789981e-05 -9.03199863e+01 -1.60169254e+00 
 4.86967525e-02  3.32273810e-05 -8.95700778e+01 -1.60259464e+00 
 5.01187234e-02  3.62235713e-05 -8.88201747e+01 -1.60352306e+00 
 5.15822165e-02  3.94899090e-05 -8.80702773e+01 -1.60447859e+00 
 5.30884444e-02  4.30507474e-05 -8.73203861e+01 -1.60546201e+00 
 5.46386550e-02  4.69326349e-05 -8.65705013e+01 -1.60647414e+00 
 5.62341325e-02  5.11645120e-05 -8.58206233e+01 -1.60751581e+00 
 5.78761988e-02  5.57779277e-05 -8.50707525e+01 -1.60858788e+00 
 5.95662144e-02  6.08072734e-05 -8.43208894e+01 -1.60969125e+00 
 6.13055792e-02  6.62900399e-05 -8.35710344e+01 -1.61082682e+00 
 6.30957344e-02  7.22670956e-05 -8.28211880e+01 -1.61199553e+00 
 6.49381632e-02  7.87829914e-05 -8.20713507e+01 -1.61319835e+00 
 6.68343918e-02  8.58862915e-05 -8.13215230e+01 -1.61443628e+00 
 6.87859912e-02  9.36299355e-05 -8.05717055e+01 -1.61571033e+00 
 7.07945784e-02  1.02071632e-04 -7.98218989e+01 -1.61702156e+00 
 7.28618175e-02  1.11274286e-04 -7.90721036e+01 -1.61837106e+00 
 7.49894209e-02  1.21306472e-04 -7.83223206e+01 -1.61975993e+00 
 7.71791516e-02  1.32242936e-04 -7.75725503e+01 -1.62118933e+00 
 7.94328235e-02  1.44165159e-04 -7.68227937e+01 -1.62266043e+00 
 8.17523038e-02  1.57161956e-04 -7.60730515e+01 -1.62417446e+00 
 8.41395142e-02  1.71330141e-04 -7.53233246e+01 -1.62573266e+00 
 8.65964323e-02  1.86775243e-04 -7.45736138e+01 -1.62733631e+00 
 8.91250938e-02  2.03612292e-04 -7.38239201e+01 -1.62898675e+00 
 9.17275935e-02  2.21966671e-04 -7.30742446e+01 -1.63068533e+00 
 9.44060876e-02  2.41975047e-04 -7.23245884e+01 -1.63243345e+00 
 9.71627952e-02  2.63786387e-04 -7.15749524e+01 -1.63423256e+00 
 1.00000000e-01  2.87563061e-04 -7.08253380e+01 -1.63608414e+00 
 1.02920053e-01  3.13482048e-04 -7.00757465e+01 -1.63798972e+00 
 1.05925373e-01  3.41736246e-04 -6.93261791e+01 -1.63995086e+00 
 1.09018449e-01  3.72535901e-04 -6.85766374e+01 -1.64196918e+00 
 1.12201845e-01  4.06110168e-04 -6.78271227e+01 -1.64404634e+00 
 1.15478198e-01  4.42708803e-04 -6.70776368e+01 -1.64618406e+00 
 1.18850223e-01  4.82604015e-04 -6.63281814e+01 -1.64838410e+00 
 1.22320712e-01  5.26092479e-04 -6.55787581e+01 -1.65064825e+00 
 1.25892541e-01  5.73497525e-04 -6.48293690e+01 -1.65297839e+00 
 1.29568670e-01  6.25171534e-04 -6.40800161e+01 -1.65537643e+00 
 1.33352143e-01  6.81498537e-04 -6.33307014e+01 -1.65784433e+00 
 1.37246096e-01  7.42897049e-04 -6.25814273e+01 -1.66038413e+00 
 1.41253754e-01  8.09823157e-04 -6.18321962e+01 -1.66299791e+00 
 1.45378439e-01  8.82773881e-04 -6.10830105e+01 -1.66568782e+00 
 1.49623566e-01  9.62290836e-04 -6.03338730e+01 -1.66845605e+00 
 1.53992653e-01  1.04896422e-03 -5.95847865e+01 -1.67130487e+00 
 1.58489319e-01  1.14343715e-03 -5.88357541e+01 -1.67423663e+00 
 1.63117291e-01  1.24641039e-03 -5.80867788e+01 -1.67725370e+00 
 1.67880402e-01  1.35864749e-03 -5.73378642e+01 -1.68035857e+00 
 1.72782598e-01  1.48098042e-03 -5.65890137e+01 -1.68355377e+00 
 1.77827941e-01  1.61431560e-03 -5.58402312e+01 -1.68684190e+00 
 1.83020611e-01  1.75964059e-03 -5.50915206e+01 -1.69022565e+00 
 1.88364909e-01  1.91803130e-03 -5.43428862e+01 -1.69370777e+00 
 1.93865264e-01  2.09065982e-03 -5.35943325e+01 -1.69729109e+00 
 1.99526231e-01  2.27880301e-03 -5.28458643e+01 -1.70097853e+00 
 2.05352503e-01  2.48385175e-03 -5.20974866e+01 -1.70477308e+00 
 2.11348904e-01  2.70732110e-03 -5.13492046e+01 -1.70867781e+00 
 2.17520403e-01  2.95086128e-03 -5.06010241e+01 -1.71269590e+00 
 2.23872114e-01  3.21626962e-03 -4.98529510e+01 -1.71683059e+00 
 2.30409298e-01  3.50550359e-03 -4.91049917e+01 -1.72108522e+00 
 2.37137371e-01  3.82069495e-03 -4.83571527e+01 -1.72546322e+00 
 2.44061907e-01  4.16416508e-03 -4.76094412e+01 -1.72996811e+00 
 2.51188643e-01  4.53844172e-03 -4.68618647e+01 -1.73460352e+00 
 2.58523484e-01  4.94627712e-03 -4.61144311e+01 -1.73937316e+00 
 2.66072506e-01  5.39066770e-03 -4.53671488e+01 -1.74428086e+00 
 2.73841963e-01  5.87487556e-03 -4.46200266e+01 -1.74933054e+00 
 2.81838293e-01  6.40245164e-03 -4.38730739e+01 -1.75452622e+00 
 2.90068120e-01  6.97726101e-03 -4.31263006e+01 -1.75987203e+00 
 2.98538262e-01  7.60351025e-03 -4.23797173e+01 -1.76537223e+00 
 3.07255737e-01  8.28577718e-03 -4.16333350e+01 -1.77103116e+00 
 3.16227766e-01  9.02904309e-03 -4.08871655e+01 -1.77685329e+00 
 3.25461783e-01  9.83872771e-03 -4.01412212e+01 -1.78284321e+00 
 3.34965439e-01  1.07207271e-02 -3.93955152e+01 -1.78900562e+00 
 3.44746607e-01  1.16814547e-02 -3.86500614e+01 -1.79534533e+00 
 3.54813389e-01  1.27278860e-02 -3.79048745e+01 -1.80186730e+00 
 3.65174127e-01  1.38676063e-02 -3.71599699e+01 -1.80857658e+00 
 3.75837404e-01  1.51088632e-02 -3.64153642e+01 -1.81547838e+00 
 3.86812055e-01  1.64606231e-02 -3.56710746e+01 -1.82257800e+00 
 3.98107171e-01  1.79326318e-02 -3.49271194e+01 -1.82988090e+00 
 4.09732110e-01  1.95354808e-02 -3.41835179e+01 -1.83739266e+00 
 4.21696503e-01  2.12806784e-02 -3.34402906e+01 -1.84511899e+00 
 4.34010264e-01  2.31807265e-02 -3.26974591e+01 -1.85306572e+00 
 4.46683592e-01  2.52492039e-02 -3.19550462e+01 -1.86123885e+00 
 4.59726989e-01  2.75008557e-02 -3.12130759e+01 -1.86964447e+00 
 4.73151259e-01  2.99516894e-02 -3.04715735e+01 -1.87828883e+00 
 4.86967525e-01  3.26190793e-02 -2.97305660e+01 -1.88717833e+00 
 5.01187234e-01  3.55218781e-02 -2.89900816e+01 -1.89631947e+00 
 5.15822165e-01  3.86805370e-02 -2.82501501e+01 -1.90571890e+00 
 5.30884444e-01  4.21172349e-02 -2.75108030e+01 -1.91538343e+00 
 5.46386550e-01  4.58560169e-02 -2.67720734e+01 -1.92531996e+00 
 5.62341325e-01  4.99229430e-02 -2.60339964e+01 -1.93553555e+00 
 5.78761988e-01  5.43462473e-02 -2.52966088e+01 -1.94603739e+00 
 5.95662144e-01  5.91565082e-02 -2.45599494e+01 -1.95683279e+00 
 6.13055792e-01  6.43868304e-02 -2.38240591e+01 -1.96792919e+00 
 6.30957344e-01  7.00730390e-02 -2.30889809e+01 -1.97933414e+00 
 6.49381632e-01  7.62538868e-02 -2.23547603e+01 -1.99105532e+00 
 6.68343918e-01  8.29712743e-02 -2.16214448e+01 -2.00310053e+00 
 6.87859912e-01  9.02704837e-02 -2.08890846e+01 -2.01547765e+00 
 7.07945784e-01  9.82004274e-02 -2.01577324e+01 -2.02819470e+00 
 7.28618175e-01  1.06813911e-01 -1.94274437e+01 -2.04125976e+00 
 7.49894209e-01  1.16167910e-01 -1.86982765e+01 -2.05468102e+00 
 7.71791516e-01  1.26323863e-01 -1.79702920e+01 -2.06846673e+00 
 7.94328235e-01  1.37347982e-01 -1.72435543e+01 -2.08262522e+00 
 8.17523038e-01  1.49311572e-01 -1.65181306e+01 -2.09716488e+00 
 8.41395142e-01  1.62291371e-01 -1.57940914e+01 -2.11209413e+00 
 8.65964323e-01  1.76369902e-01 -1.50715105e+01 -2.12742145e+00 
 8.91250938e-01  1.91635841e-01 -1.43504653e+01 -2.14315531e+00 
 9.17275935e-01  2.08184396e-01 -1.36310365e+01 -2.15930419e+00 
 9.44060876e-01  2.26117701e-01 -1.29133088e+01 -2.17587658e+00 
 9.71627952e-01  2.45545215e-01 -1.21973705e+01 -2.19288090e+00 
 1.00000000e+00  2.66584138e-01 -1.14833139e+01 -2.21032555e+00 
 1.02920053e+00  2.89359827e-01 -1.07712353e+01 -2.22821885e+00 
 1.05925373e+00  3.14006222e-01 -1.00612349e+01 -2.24656901e+00 
 1.09018449e+00  3.40666265e-01 -9.35341741e+00 -2.26538415e+00 
 1.12201845e+00  3.69492329e-01 -8.64789148e+00 -2.28467223e+00 
 1.15478198e+00  4.00646625e-01 -7.94477023e+00 -2.30444104e+00 
 1.18850223e+00  4.34301614e-01 -7.24417113e+00 -2.32469818e+00 
 1.22320712e+00  4.70640393e-01 -6.54621604e+00 -2.34545102e+00 
 1.25892541e+00  5.09857057e-01 -5.85103131e+00 -2.36670667e+00 
 1.29568670e+00  5.52157040e-01 -5.15874773e+00 -2.38847195e+00 
 1.33352143e+00  5.97757413e-01 -4.46950058e+00 -2.41075337e+00 
 1.37246096e+00  6.46887144e-01 -3.78342960e+00 -2.43355707e+00 
 1.41253754e+00  6.99787296e-01 -3.10067892e+00 -2.45688880e+00 
 1.45378439e+00  7.56711174e-01 -2.42139706e+00 -2.48075388e+00 
 1.49623566e+00  8.17924388e-01 -1.74573685e+00 -2.50515717e+00 
 1.53992653e+00  8.83704846e-01 -1.07385527e+00 -2.53010301e+00 
 1.58489319e+00  9.54342642e-01 -4.05913414e-01 -2.55559521e+00 
 1.63117291e+00  1.03013985e+00  2.57923722e-01 -2.58163700e+00 
 1.67880402e+00  1.11141018e+00  9.17487374e-01 -2.60823099e+00 
 1.72782598e+00  1.19847854e+00  1.57260522e+00 -2.63537913e+00 
 1.77827941e+00  1.29168043e+00  2.22310161e+00 -2.66308268e+00 
 1.83020611e+00  1.39136120e+00  2.86879780e+00 -2.69134215e+00 
 1.88364909e+00  1.49787513e+00  3.50951223e+00 -2.72015732e+00 
 1.93865264e+00  1.61158435e+00  4.14506084e+00 -2.74952712e+00 
 1.99526231e+00  1.73285758e+00  4.77525740e+00 -2.77944970e+00 
 2.05352503e+00  1.86206867e+00  5.39991384e+00 -2.80992229e+00 
 2.11348904e+00  1.99959496e+00  6.01884066e+00 -2.84094127e+00 
 2.17520403e+00  2.14581544e+00  6.63184731e+00 -2.87250207e+00 
 2.23872114e+00  2.30110868e+00  7.23874262e+00 -2.90459919e+00 
 2.30409298e+00  2.46585061e+00  7.83933523e+00 -2.93722616e+00 
 2.37137371e+00  2.64041204e+00  8.43343409e+00 -2.97037552e+00 
 2.44061907e+00  2.82515606e+00  9.02084888e+00 -3.00403883e+00 
 2.51188643e+00  3.02043523e+00  9.60139055e+00 -3.03820661e+00 
 2.58523484e+00  3.22658857e+00  1.01748718e+01 -3.07286841e+00 
 2.66072506e+00  3.44393845e+00  1.07411076e+01 -3.10801270e+00 
 2.73841963e+00  3.67278738e+00  1.12999157e+01  3.13955832e+00 
 2.81838293e+00  3.91341462e+00  1.18511173e+01  3.10348759e+00 
 2.90068120e+00  4.16607278e+00  1.23945370e+01  3.06697496e+00 
 2.98538262e+00  4.43098438e+00  1.29300044e+01  3.03003598e+00 
 3.07255737e+00  4.70833843e+00  1.34573534e+01  2.99268718e+00 
 3.16227766e+00  4.99828699e+00  1.39764238e+01  2.95494605e+00 
 3.25461783e+00  5.30094188e+00  1.44870609e+01  2.91683103e+00 
 3.34965439e+00  5.61637154e+00  1.49891166e+01  2.87836146e+00 
 3.44746607e+00  5.94459802e+00  1.54824498e+01  2.83955759e+00 
 3.54813389e+00  6.28559422e+00  1.59669268e+01  2.80044051e+00 
 3.65174127e+00  6.63928146e+00  1.64424216e+01  2.76103210e+00 
 3.75837404e+00  7.00552734e+00  1.69088166e+01  2.72135504e+00 
 3.86812055e+00  7.38414397e+00  1.73660031e+01  2.68143273e+00 
 3.98107171e+00  7.77488666e+00  1.78138813e+01  2.64128924e+00 
 4.09732110e+00  8.17745309e+00  1.82523612e+01  2.60094928e+00 
 4.21696503e+00  8.59148290e+00  1.86813626e+01  2.56043811e+00 
 4.34010264e+00  9.01655795e+00  1.91008156e+01  2.51978153e+00 
 4.46683592e+00  9.45220299e+00  1.95106608e+01  2.47900577e+00 
 4.59726989e+00  9.89788700e+00  1.99108498e+01  2.43813747e+00 
 4.73151259e+00  1.03530250e+01  2.03013453e+01  2.39720357e+00 
 4.86967525e+00  1.08169808e+01  2.06821212e+01  2.35623127e+00 
 5.01187234e+00  1.12890695e+01  2.10531630e+01  2.31524797e+00 
 5.15822165e+00  1.17685616e+01  2.14144677e+01  2.27428114e+00 
 5.30884444e+00  1.22546867e+01  2.17660442e+01  2.23335831e+00 
 5.46386550e+00  1.27466382e+01  2.21079132e+01  2.19250695e+00 
 5.62341325e+00  1.32435781e+01  2.24401068e+01  2.15175442e+00 
 5.78761988e+00  1.37446428e+01  2.27626692e+01  2.11112786e+00 
 5.95662144e+00  1.42489479e+01  2.30756560e+01  2.07065414e+00 
 6.13055792e+00  1.47555946e+01  2.33791343e+01  2.03035978e+00 
 6.30957344e+00  1.52636756e+01  2.36731825e+01  1.99027084e+00 
 6.49381632e+00  1.57722809e+01  2.39578900e+01  1.95041289e+00 
