 frequency       gain_vv         gain_db         phase_deg      
 1.00000000e-03  1.97512142e-10 -1.94088124e+02 -1.57135365e+00 
 1.02920053e-03  2.15324674e-10 -1.93338124e+02 -1.57136992e+00 
 1.05925373e-03  2.34743619e-10 -1.92588124e+02 -1.57138667e+00 
 1.09018449e-03  2.55913852e-10 -1.91838124e+02 -1.57140391e+00 
 1.12201845e-03  2.78993312e-10 -1.91088124e+02 -1.57142165e+00 
 1.15478198e-03  3.04154181e-10 -1.90338124e+02 -1.57143991e+00 
 1.18850223e-03  3.31584169e-10 -1.89588124e+02 -1.57145871e+00 
 1.22320712e-03  3.61487917e-10 -1.88838124e+02 -1.57147805e+00 
 1.25892541e-03  3.94088519e-10 -1.88088124e+02 -1.57149796e+00 
 1.29568670e-03  4.29629190e-10 -1.87338124e+02 -1.57151844e+00 
 1.33352143e-03  4.68375077e-10 -1.86588124e+02 -1.57153953e+00 
 1.37246096e-03  5.10615242e-10 -1.85838125e+02 -1.57156123e+00 
 1.41253754e-03  5.56664814e-10 -1.85088125e+02 -1.57158357e+00 
 1.45378439e-03  6.06867343e-10 -1.84338125e+02 -1.57160656e+00 
 1.49623566e-03  6.61597361e-10 -1.83588125e+02 -1.57163021e+00 
 1.53992653e-03  7.21263177e-10 -1.82838125e+02 -1.57165456e+00 
 1.58489319e-03  7.86309923e-10 -1.82088125e+02 -1.57167963e+00 
 1.63117291e-03  8.57222876e-10 -1.81338125e+02 -1.57170542e+00 
 1.67880402e-03  9.34531076e-10 -1.80588125e+02 -1.57173196e+00 
 1.72782598e-03  1.01881128e-09 -1.79838125e+02 -1.57175928e+00 
 1.77827941e-03  1.11069224e-09 -1.79088125e+02 -1.57178740e+00 
 1.83020611e-03  1.21085944e-09 -1.78338125e+02 -1.57181634e+00 
 1.88364909e-03  1.32006017e-09 -1.77588125e+02 -1.57184613e+00 
 1.93865264e-03  1.43910910e-09 -1.76838126e+02 -1.57187678e+00 
 1.99526231e-03  1.56889441e-09 -1.76088126e+02 -1.57190833e+00 
 2.05352503e-03  1.71038433e-09 -1.75338126e+02 -1.57194080e+00 
 2.11348904e-03  1.86463444e-09 -1.74588126e+02 -1.57197422e+00 
 2.17520403e-03  2.03279551e-09 -1.73838126e+02 -1.57200862e+00 
 2.23872114e-03  2.21612210e-09 -1.73088126e+02 -1.57204402e+00 
 2.30409298e-03  2.41598190e-09 -1.72338126e+02 -1.57208045e+00 
 2.37137371e-03  2.63386595e-09 -1.71588127e+02 -1.57211795e+00 
 2.44061907e-03  2.87139975e-09 -1.70838127e+02 -1.57215654e+00 
 2.51188643e-03  3.13035540e-09 -1.70088127e+02 -1.57219626e+00 
 2.58523484e-03  3.41266483e-09 -1.69338127e+02 -1.57223714e+00 
 2.66072506e-03  3.72043418e-09 -1.68588127e+02 -1.57227921e+00 
 2.73841963e-03  4.05595954e-09 -1.67838128e+02 -1.57232251e+00 
 2.81838293e-03  4.42174406e-09 -1.67088128e+02 -1.57236708e+00 
 2.90068120e-03  4.82051665e-09 -1.66338128e+02 -1.57241294e+00 
 2.98538262e-03  5.25525233e-09 -1.65588129e+02 -1.57246015e+00 
 3.07255737e-03  5.72919439e-09 -1.64838129e+02 -1.57250874e+00 
 3.16227766e-03  6.24587865e-09 -1.64088129e+02 -1.57255874e+00 
 3.25461783e-03  6.80915978e-09 -1.63338129e+02 -1.57261020e+00 
 3.34965439e-03  7.42324009e-09 -1.62588130e+02 -1.57266317e+00 
 3.44746607e-03  8.09270088e-09 -1.61838130e+02 -1.57271768e+00 
 3.54813389e-03  8.82253659e-09 -1.61088131e+02 -1.57277379e+00 
 3.65174127e-03  9.61819210e-09 -1.60338131e+02 -1.57283153e+00 
 3.75837404e-03  1.04856033e-08 -1.59588132e+02 -1.57289096e+00 
 3.86812055e-03  1.14312415e-08 -1.58838132e+02 -1.57295212e+00 
 3.98107171e-03  1.24621615e-08 -1.58088133e+02 -1.57301507e+00 
 4.09732110e-03  1.35860544e-08 -1.57338133e+02 -1.57307986e+00 
 4.21696503e-03  1.48113048e-08 -1.56588134e+02 -1.57314654e+00 
 4.34010264e-03  1.61470537e-08 -1.55838134e+02 -1.57321517e+00 
 4.46683592e-03  1.76032662e-08 -1.55088135e+02 -1.57328580e+00 
 4.59726989e-03  1.91908064e-08 -1.54338136e+02 -1.57335849e+00 
 4.73151259e-03  2.09215178e-08 -1.53588136e+02 -1.57343331e+00 
 4.86967525e-03  2.28083122e-08 -1.52838137e+02 -1.57351031e+00 
 5.01187234e-03  2.48652660e-08 -1.52088138e+02 -1.57358956e+00 
 5.15822165e-03  2.71077247e-08 -1.51338139e+02 -1.57367112e+00 
 5.30884444e-03  2.95524180e-08 -1.50588140e+02 -1.57375507e+00 
 5.46386550e-03  3.22175843e-08 -1.49838141e+02 -1.57384147e+00 
 5.62341325e-03  3.51231067e-08 -1.49088142e+02 -1.57393039e+00 
 5.78761988e-03  3.82906615e-08 -1.48338143e+02 -1.57402190e+00 
 5.95662144e-03  4.17438799e-08 -1.47588144e+02 -1.57411609e+00 
 6.13055792e-03  4.55085243e-08 -1.46838145e+02 -1.57421303e+00 
 6.30957344e-03  4.96126801e-08 -1.46088146e+02 -1.57431280e+00 
 6.49381632e-03  5.40869661e-08 -1.45338148e+02 -1.57441548e+00 
 6.68343918e-03  5.89647620e-08 -1.44588149e+02 -1.57452116e+00 
 6.87859912e-03  6.42824579e-08 -1.43838151e+02 -1.57462993e+00 
 7.07945784e-03  7.00797258e-08 -1.43088152e+02 -1.57474187e+00 
 7.28618175e-03  7.63998153e-08 -1.42338154e+02 -1.57485708e+00 
 7.49894209e-03  8.32898766e-08 -1.41588156e+02 -1.57497566e+00 
 7.71791516e-03  9.08013119e-08 -1.40838158e+02 -1.57509770e+00 
 7.94328235e-03  9.89901591e-08 -1.40088160e+02 -1.57522330e+00 
 8.17523038e-03  1.07917510e-07 -1.39338162e+02 -1.57535257e+00 
 8.41395142e-03  1.17649965e-07 -1.38588164e+02 -1.57548561e+00 
 8.65964323e-03  1.28260132e-07 -1.37838166e+02 -1.57562254e+00 
 8.91250938e-03  1.39827166e-07 -1.37088169e+02 -1.57576347e+00 
 9.17275935e-03  1.52437360e-07 -1.36338172e+02 -1.57590851e+00 
 9.44060876e-03  1.66184792e-07 -1.35588174e+02 -1.57605779e+00 
 9.71627952e-03  1.81172020e-07 -1.34838177e+02 -1.57621143e+00 
 1.00000000e-02  1.97510853e-07 -1.34088181e+02 -1.57636955e+00 
 1.02920053e-02  2.15323185e-07 -1.33338184e+02 -1.57653229e+00 
 1.05925373e-02  2.34741901e-07 -1.32588188e+02 -1.57669978e+00 
 1.09018449e-02  2.55911868e-07 -1.31838191e+02 -1.57687217e+00 
 1.12201845e-02  2.78991020e-07 -1.31088196e+02 -1.57704958e+00 
 1.15478198e-02  3.04151534e-07 -1.30338200e+02 -1.57723218e+00 
 1.18850223e-02  3.31581113e-07 -1.29588204e+02 -1.57742011e+00 
 1.22320712e-02  3.61484388e-07 -1.28838209e+02 -1.57761353e+00 
 1.25892541e-02  3.94084443e-07 -1.28088214e+02 -1.57781259e+00 
 1.29568670e-02  4.29624483e-07 -1.27338220e+02 -1.57801747e+00 
 1.33352143e-02  4.68369642e-07 -1.26588225e+02 -1.57822833e+00 
 1.37246096e-02  5.10608965e-07 -1.25838231e+02 -1.57844534e+00 
 1.41253754e-02  5.56657566e-07 -1.25088238e+02 -1.57866870e+00 
 1.45378439e-02  6.06858973e-07 -1.24338244e+02 -1.57889857e+00 
 1.49623566e-02  6.61587696e-07 -1.23588252e+02 -1.57913516e+00 
 1.53992653e-02  7.21252016e-07 -1.22838259e+02 -1.57937866e+00 
 1.58489319e-02  7.86297034e-07 -1.22088267e+02 -1.57962926e+00 
 1.63117291e-02  8.57207992e-07 -1.21338276e+02 -1.57988719e+00 
 1.67880402e-02  9.34513889e-07 -1.20588285e+02 -1.58015264e+00 
 1.72782598e-02  1.01879143e-06 -1.19838294e+02 -1.58042585e+00 
 1.77827941e-02  1.11066932e-06 -1.19088304e+02 -1.58070703e+00 
 1.83020611e-02  1.21083297e-06 -1.18338315e+02 -1.58099642e+00 
 1.88364909e-02  1.32002960e-06 -1.17588327e+02 -1.58129427e+00 
 1.93865264e-02  1.43907381e-06 -1.16838339e+02 -1.58160081e+00 
 1.99526231e-02  1.56885365e-06 -1.16088351e+02 -1.58191630e+00 
 2.05352503e-02  1.71033726e-06 -1.15338365e+02 -1.58224100e+00 
 2.11348904e-02  1.86458008e-06 -1.14588379e+02 -1.58257518e+00 
 2.17520403e-02  2.03273275e-06 -1.13838394e+02 -1.58291913e+00 
 2.23872114e-02  2.21604962e-06 -1.13088410e+02 -1.58327311e+00 
 2.30409298e-02  2.41589820e-06 -1.12338427e+02 -1.58363743e+00 
 2.37137371e-02  2.63376929e-06 -1.11588445e+02 -1.58401239e+00 
 2.44061907e-02  2.87128814e-06 -1.10838464e+02 -1.58439830e+00 
 2.51188643e-02  3.13022652e-06 -1.10088485e+02 -1.58479547e+00 
 2.58523484e-02  3.41251600e-06 -1.09338506e+02 -1.58520424e+00 
 2.66072506e-02  3.72026231e-06 -1.08588529e+02 -1.58562495e+00 
 2.73841963e-02  4.05576106e-06 -1.07838553e+02 -1.58605793e+00 
 2.81838293e-02  4.42151486e-06 -1.07088578e+02 -1.58650357e+00 
 2.90068120e-02  4.82025198e-06 -1.06338605e+02 -1.58696221e+00 
 2.98538262e-02  5.25494669e-06 -1.05588634e+02 -1.58743424e+00 
 3.07255737e-02  5.72884145e-06 -1.04838664e+02 -1.58792006e+00 
 3.16227766e-02  6.24547108e-06 -1.04088696e+02 -1.58842006e+00 
 3.25461783e-02  6.80868913e-06 -1.03338730e+02 -1.58893466e+00 
 3.34965439e-02  7.42269659e-06 -1.02588766e+02 -1.58946428e+00 
 3.44746607e-02  8.09207326e-06 -1.01838804e+02 -1.59000937e+00 
 3.54813389e-02  8.82181183e-06 -1.01088844e+02 -1.59057037e+00 
 3.65174127e-02  9.61735517e-06 -1.00338887e+02 -1.59114775e+00 
 3.75837404e-02  1.04846369e-05 -9.95889321e+01 -1.59174198e+00 
 3.86812055e-02  1.14301255e-05 -9.88389801e+01 -1.59235357e+00 
 3.98107171e-02  1.24608727e-05 -9.80890308e+01 -1.59298301e+00 
 4.09732110e-02  1.35845661e-05 -9.73390846e+01 -1.59363082e+00 
 4.21696503e-02  1.48095862e-05 -9.65891415e+01 -1.59429755e+00 
 4.34010264e-02  1.61450691e-05 -9.58392018e+01 -1.59498374e+00 
 4.46683592e-02  1.76009745e-05 -9.50892657e+01 -1.59568997e+00 
 4.59726989e-02  1.91881599e-05 -9.43393334e+01 -1.59641681e+00 
 4.73151259e-02  2.09184617e-05 -9.35894051e+01 -1.59716487e+00 
 4.86967525e-02  2.28047832e-05 -9.28394810e+01 -1.59793476e+00 
 5.01187234e-02  2.48611908e-05 -9.20895615e+01 -1.59872713e+00 
 5.15822165e-02  2.71030188e-05 -9.13396467e+01 -1.59954263e+00 
 5.30884444e-02  2.95469838e-05 -9.05897369e+01 -1.60038194e+00 
 5.46386550e-02  3.22113090e-05 -8.98398325e+01 -1.60124574e+00 
 5.62341325e-02  3.51158602e-05 -8.90899338e+01 -1.60213476e+00 
 5.78761988e-02  3.82822935e-05 -8.83400410e+01 -1.60304972e+00 
 5.95662144e-02  4.17342168e-05 -8.75901546e+01 -1.60399140e+00 
 6.13055792e-02  4.54973657e-05 -8.68402750e+01 -1.60496055e+00 
 6.30957344e-02  4.95997946e-05 -8.60904024e+01 -1.60595799e+00 
 6.49381632e-02  5.40720864e-05 -8.53405375e+01 -1.60698454e+00 
 6.68343918e-02  5.89475795e-05 -8.45906805e+01 -1.60804105e+00 
 6.87859912e-02  6.42626162e-05 -8.38408320e+01 -1.60912840e+00 
 7.07945784e-02  7.00568135e-05 -8.30909924e+01 -1.61024747e+00 
 7.28618175e-02  7.63733572e-05 -8.23411624e+01 -1.61139920e+00 
 7.49894209e-02  8.32593240e-05 -8.15913424e+01 -1.61258454e+00 
 7.71791516e-02  9.07660312e-05 -8.08415331e+01 -1.61380446e+00 
 7.94328235e-02  9.89494186e-05 -8.00917351e+01 -1.61505998e+00 
 8.17523038e-02  1.07870465e-04 -7.93419490e+01 -1.61635212e+00 
 8.41395142e-02  1.17595640e-04 -7.85921756e+01 -1.61768197e+00 
 8.65964323e-02  1.28197400e-04 -7.78424156e+01 -1.61905061e+00 
 8.91250938e-02  1.39754727e-04 -7.70926699e+01 -1.62045917e+00 
 9.17275935e-02  1.52353712e-04 -7.63429392e+01 -1.62190883e+00 
 9.44060876e-02  1.66088200e-04 -7.55932244e+01 -1.62340076e+00 
 9.71627952e-02  1.81060482e-04 -7.48435266e+01 -1.62493621e+00 
 1.00000000e-01  1.97382057e-04 -7.40938466e+01 -1.62651644e+00 
 1.02920053e-01  2.15174460e-04 -7.33441856e+01 -1.62814275e+00 
 1.05925373e-01  2.34570163e-04 -7.25945446e+01 -1.62981648e+00 
 1.09018449e-01  2.55713559e-04 -7.18449249e+01 -1.63153902e+00 
 1.12201845e-01  2.78762029e-04 -7.10953277e+01 -1.63331177e+00 
 1.15478198e-01  3.03887114e-04 -7.03457543e+01 -1.63513620e+00 
 1.18850223e-01  3.31275784e-04 -6.95962062e+01 -1.63701380e+00 
 1.22320712e-01  3.61131821e-04 -6.88466848e+01 -1.63894614e+00 
 1.25892541e-01  3.93677334e-04 -6.80971918e+01 -1.64093478e+00 
 1.29568670e-01  4.29154393e-04 -6.73477287e+01 -1.64298137e+00 
 1.33352143e-01  4.67826832e-04 -6.65982975e+01 -1.64508759e+00 
 1.37246096e-01  5.09982188e-04 -6.58488998e+01 -1.64725517e+00 
 1.41253754e-01  5.55933837e-04 -6.50995378e+01 -1.64948588e+00 
 1.45378439e-01  6.06023298e-04 -6.43502136e+01 -1.65178155e+00 
 1.49623566e-01  6.60622765e-04 -6.36009293e+01 -1.65414407e+00 
 1.53992653e-01  7.20137843e-04 -6.28516873e+01 -1.65657537e+00 
 1.58489319e-01  7.85010544e-04 -6.21024902e+01 -1.65907745e+00 
 1.63117291e-01  8.55722544e-04 -6.13533405e+01 -1.66165233e+00 
 1.67880402e-01  9.32798725e-04 -6.06042411e+01 -1.66430214e+00 
 1.72782598e-01  1.01681104e-03 -5.98551950e+01 -1.66702904e+00 
 1.77827941e-01  1.10838271e-03 -5.91062052e+01 -1.66983524e+00 
 1.83020611e-01  1.20819281e-03 -5.83572751e+01 -1.67272304e+00 
 1.88364909e-01  1.31698125e-03 -5.76084082e+01 -1.67569479e+00 
 1.93865264e-01  1.43555419e-03 -5.68596082e+01 -1.67875291e+00 
 1.99526231e-01  1.56478993e-03 -5.61108791e+01 -1.68189988e+00 
 2.05352503e-01  1.70564539e-03 -5.53622251e+01 -1.68513825e+00 
 2.11348904e-01  1.85916303e-03 -5.46136505e+01 -1.68847065e+00 
 2.17520403e-01  2.02647848e-03 -5.38651601e+01 -1.69189979e+00 
 2.23872114e-01  2.20882884e-03 -5.31167587e+01 -1.69542842e+00 
 2.30409298e-01  2.40756164e-03 -5.23684517e+01 -1.69905941e+00 
 2.37137371e-01  2.62414467e-03 -5.16202445e+01 -1.70279567e+00 
 2.44061907e-01  2.86017660e-03 -5.08721430e+01 -1.70664022e+00 
 2.51188643e-01  3.11739853e-03 -5.01241535e+01 -1.71059614e+00 
 2.58523484e-01  3.39770665e-03 -4.93762824e+01 -1.71466661e+00 
 2.66072506e-01  3.70316586e-03 -4.86285367e+01 -1.71885489e+00 
 2.73841963e-01  4.03602463e-03 -4.78809238e+01 -1.72316431e+00 
 2.81838293e-01  4.39873123e-03 -4.71334515e+01 -1.72759832e+00 
 2.90068120e-01  4.79395119e-03 -4.63861278e+01 -1.73216044e+00 
 2.98538262e-01  5.22458642e-03 -4.56389617e+01 -1.73685430e+00 
 3.07255737e-01  5.69379590e-03 -4.48919621e+01 -1.74168360e+00 
 3.16227766e-01  6.20501816e-03 -4.41451389e+01 -1.74665215e+00 
 3.25461783e-01  6.76199564e-03 -4.33985023e+01 -1.75176388e+00 
 3.34965439e-01  7.36880125e-03 -4.26520631e+01 -1.75702277e+00 
 3.44746607e-01  8.02986698e-03 -4.19058330e+01 -1.76243296e+00 
 3.54813389e-01  8.75001513e-03 -4.11598239e+01 -1.76799865e+00 
 3.65174127e-01  9.53449205e-03 -4.04140488e+01 -1.77372416e+00 
 3.75837404e-01  1.03890047e-02 -3.96685211e+01 -1.77961392e+00 
 3.86812055e-01  1.13197605e-02 -3.89232553e+01 -1.78567248e+00 
 3.98107171e-01  1.23335098e-02 -3.81782663e+01 -1.79190446e+00 
 4.09732110e-01  1.34375931e-02 -3.74335703e+01 -1.79831464e+00 
 4.21696503e-01  1.46399906e-02 -3.66891841e+01 -1.80490788e+00 
 4.34010264e-01  1.59493772e-02 -3.59451254e+01 -1.81168916e+00 
 4.46683592e-01  1.73751812e-02 -3.52014132e+01 -1.81866358e+00 
 4.59726989e-01  1.89276476e-02 -3.44580672e+01 -1.82583635e+00 
 4.73151259e-01  2.06179073e-02 -3.37151084e+01 -1.83321279e+00 
 4.86967525e-01  2.24580507e-02 -3.29725588e+01 -1.84079835e+00 
 5.01187234e-01  2.44612081e-02 -3.22304420e+01 -1.84859858e+00 
 5.15822165e-01  2.66416358e-02 -3.14887823e+01 -1.85661916e+00 
 5.30884444e-01  2.90148091e-02 -3.07476056e+01 -1.86486587e+00 
 5.46386550e-01  3.15975222e-02 -3.00069395e+01 -1.87334462e+00 
 5.62341325e-01  3.44079959e-02 -2.92668124e+01 -1.88206141e+00 
 5.78761988e-01  3.74659935e-02 -2.85272549e+01 -1.89102237e+00 
 5.95662144e-01  4.07929449e-02 -2.77882988e+01 -1.90023374e+00 
 6.13055792e-01  4.44120800e-02 -2.70499777e+01 -1.90970185e+00 
 6.30957344e-01  4.83485720e-02 -2.63123270e+01 -1.91943316e+00 
 6.49381632e-01  5.26296900e-02 -2.55753838e+01 -1.92943420e+00 
 6.68343918e-01  5.72849637e-02 -2.48391872e+01 -1.93971163e+00 
 6.87859912e-01  6.23463576e-02 -2.41037783e+01 -1.95027217e+00 
 7.07945784e-01  6.78484589e-02 -2.33692003e+01 -1.96112265e+00 
 7.28618175e-01  7.38286758e-02 -2.26354984e+01 -1.97226998e+00 
 7.49894209e-01  8.03274504e-02 -2.19027203e+01 -1.98372114e+00 
 7.71791516e-01  8.73884837e-02 -2.11709159e+01 -1.99548317e+00 
 7.94328235e-01  9.50589750e-02 -2.04401375e+01 -2.00756318e+00 
 8.17523038e-01  1.03389875e-01 -1.97104398e+01 -2.01996835e+00 
 8.41395142e-01  1.12436156e-01 -1.89818802e+01 -2.03270587e+00 
 8.65964323e-01  1.22257090e-01 -1.82545189e+01 -2.04578297e+00 
 8.91250938e-01  1.32916552e-01 -1.75284186e+01 -2.05920692e+00 
 9.17275935e-01  1.44483331e-01 -1.68036451e+01 -2.07298498e+00 
 9.44060876e-01  1.57031458e-01 -1.60802668e+01 -2.08712442e+00 
 9.71627952e-01  1.70640548e-01 -1.53583552e+01 -2.10163247e+00 
 1.00000000e+00  1.85396163e-01 -1.46379851e+01 -2.11651634e+00 
 1.02920053e+00  2.01390180e-01 -1.39192342e+01 -2.13178319e+00 
 1.05925373e+00  2.18721179e-01 -1.32021832e+01 -2.14744011e+00 
 1.09018449e+00  2.37494839e-01 -1.24869165e+01 -2.16349411e+00 
 1.12201845e+00  2.57824352e-01 -1.17735213e+01 -2.17995208e+00 
 1.15478198e+00  2.79830841e-01 -1.10620884e+01 -2.19682080e+00 
 1.18850223e+00  3.03643789e-01 -1.03527120e+01 -2.21410690e+00 
 1.22320712e+00  3.29401471e-01 -9.64548931e+00 -2.23181684e+00 
 1.25892541e+00  3.57251397e-01 -8.94052128e+00 -2.24995689e+00 
 1.29568670e+00  3.87350748e-01 -8.23791203e+00 -2.26853311e+00 
 1.33352143e+00  4.19866813e-01 -7.53776904e+00 -2.28755132e+00 
 1.37246096e+00  4.54977421e-01 -6.84020311e+00 -2.30701707e+00 
 1.41253754e+00  4.92871362e-01 -6.14532831e+00 -2.32693563e+00 
 1.45378439e+00  5.33748794e-01 -5.45326187e+00 -2.34731195e+00 
 1.49623566e+00  5.77821627e-01 -4.76412414e+00 -2.36815066e+00 
 1.53992653e+00  6.25313890e-01 -4.07803849e+00 -2.38945602e+00 
 1.58489319e+00  6.76462056e-01 -3.39513117e+00 -2.41123187e+00 
 1.63117291e+00  7.31515343e-01 -2.71553121e+00 -2.43348170e+00 
 1.67880402e+00  7.90735958e-01 -2.03937024e+00 -2.45620850e+00 
 1.72782598e+00  8.54399298e-01 -1.36678234e+00 -2.47941485e+00 
 1.77827941e+00  9.22794093e-01 -6.97903879e-01 -2.50310282e+00 
 1.83020611e+00  9.96222479e-01 -3.28732605e-02 -2.52727398e+00 
 1.88364909e+00  1.07499999e+00  6.28169241e-01 -2.55192941e+00 
 1.93865264e+00  1.15945550e+00  1.28508173e+00 -2.57706962e+00 
 1.99526231e+00  1.24993102e+00  1.93772091e+00 -2.60269457e+00 
 2.05352503e+00  1.34678143e+00  2.58594237e+00 -2.62880366e+00 
 2.11348904e+00  1.45037411e+00  3.22960078e+00 -2.65539573e+00 
 2.17520403e+00  1.56108845e+00  3.86855023e+00 -2.68246900e+00 
 2.23872114e+00  1.67931521e+00  4.50264445e+00 -2.71002111e+00 
 2.30409298e+00  1.80545577e+00  5.13173706e+00 -2.73804912e+00 
 2.37137371e+00  1.93992123e+00  5.75568190e+00 -2.76654946e+00 
 2.44061907e+00  2.08313139e+00  6.37433325e+00 -2.79551798e+00 
 2.51188643e+00  2.23551355e+00  6.98754612e+00 -2.82494992e+00 
 2.58523484e+00  2.39750114e+00  7.59517645e+00 -2.85483994e+00 
 2.66072506e+00  2.56953224e+00  8.19708141e+00 -2.88518210e+00 
 2.73841963e+00  2.75204785e+00  8.79311961e+00 -2.91596989e+00 
 2.81838293e+00  2.94549008e+00  9.38315129e+00 -2.94719623e+00 
 2.90068120e+00  3.15030010e+00  9.96703855e+00 -2.97885348e+00 
 2.98538262e+00  3.36691597e+00  1.05446455e+01 -3.01093346e+00 
 3.07255737e+00  3.59577022e+00  1.11158386e+01 -3.04342744e+00 
 3.16227766e+00  3.83728736e+00  1.16804865e+01 -3.07632619e+00 
 3.25461783e+00  4.09188119e+00  1.22384603e+01 -3.10961995e+00 
 3.34965439e+00  4.35995191e+00  1.27896340e+01  3.13988683e+00 
 3.44746607e+00  4.64188312e+00  1.33338840e+01  3.10583427e+00 
 3.54813389e+00  4.93803874e+00  1.38710899e+01  3.07141891e+00 
 3.65174127e+00  5.24875969e+00  1.44011338e+01  3.03665240e+00 
 3.75837404e+00  5.57436059e+00  1.49239012e+01  3.00154690e+00 
 3.86812055e+00  5.91512631e+00  1.54392805e+01  2.96611500e+00 
 3.98107171e+00  6.27130848e+00  1.59471633e+01  2.93036974e+00 
 4.09732110e+00  6.64312196e+00  1.64474445e+01  2.89432461e+00 
 4.21696503e+00  7.03074139e+00  1.69400225e+01  2.85799353e+00 
 4.34010264e+00  7.43429765e+00  1.74247989e+01  2.82139089e+00 
 4.46683592e+00  7.85387453e+00  1.79016792e+01  2.78453150e+00 
 4.59726989e+00  8.28950543e+00  1.83705724e+01  2.74743061e+00 
 4.73151259e+00  8.74117027e+00  1.88313916e+01  2.71010393e+00 
 4.86967525e+00  9.20879259e+00  1.92840538e+01  2.67256761e+00 
 5.01187234e+00  9.69223693e+00  1.97284804e+01  2.63483824e+00 
 5.15822165e+00  1.01913065e+01  2.01645973e+01  2.59693285e+00 
 5.30884444e+00  1.07057413e+01  2.05923349e+01  2.55886893e+00 
 5.46386550e+00  1.12352164e+01  2.10116289e+01  2.52066439e+00 
 5.62341325e+00  1.17793411e+01  2.14224200e+01  2.48233757e+00 
 5.78761988e+00  1.23376581e+01  2.18246546e+01  2.44390725e+00 
 5.95662144e+00  1.29096435e+01  2.22182850e+01  2.40539259e+00 
 6.13055792e+00  1.34947076e+01  2.26032696e+01  2.36681317e+00 
 6.30957344e+00  1.40921956e+01  2.29795732e+01  2.32818892e+00 
 6.49381632e+00  1.47013896e+01  2.33471677e+01  2.28954012e+00 
