 frequency       gain_vv         gain_db         phase_deg      
 1.00000000e-03  5.27346162e-10 -1.85558084e+02 -1.57140471e+00 
 1.02920053e-03  5.74904605e-10 -1.84808084e+02 -1.57142248e+00 
 1.05925373e-03  6.26752082e-10 -1.84058084e+02 -1.57144076e+00 
 1.09018449e-03  6.83275397e-10 -1.83308084e+02 -1.57145958e+00 
 1.12201845e-03  7.44896238e-10 -1.82558084e+02 -1.57147894e+00 
 1.15478198e-03  8.12074323e-10 -1.81808084e+02 -1.57149888e+00 
 1.18850223e-03  8.85310829e-10 -1.81058084e+02 -1.57151939e+00 
 1.22320712e-03  9.65152130e-10 -1.80308085e+02 -1.57154051e+00 
 1.25892541e-03  1.05219388e-09 -1.79558085e+02 -1.57156224e+00 
 1.29568670e-03  1.14708544e-09 -1.78808085e+02 -1.57158460e+00 
 1.33352143e-03  1.25053475e-09 -1.78058085e+02 -1.57160762e+00 
 1.37246096e-03  1.36331358e-09 -1.77308085e+02 -1.57163131e+00 
 1.41253754e-03  1.48626331e-09 -1.76558085e+02 -1.57165569e+00 
 1.45378439e-03  1.62030120e-09 -1.75808085e+02 -1.57168079e+00 
 1.49623566e-03  1.76642723e-09 -1.75058085e+02 -1.57170661e+00 
 1.53992653e-03  1.92573155e-09 -1.74308085e+02 -1.57173319e+00 
 1.58489319e-03  2.09940265e-09 -1.73558085e+02 -1.57176055e+00 
 1.63117291e-03  2.28873619e-09 -1.72808085e+02 -1.57178871e+00 
 1.67880402e-03  2.49514467e-09 -1.72058085e+02 -1.57181768e+00 
 1.72782598e-03  2.72016800e-09 -1.71308085e+02 -1.57184751e+00 
 1.77827941e-03  2.96548493e-09 -1.70558086e+02 -1.57187820e+00 
 1.83020611e-03  3.23292564e-09 -1.69808086e+02 -1.57190979e+00 
 1.88364909e-03  3.52448534e-09 -1.69058086e+02 -1.57194231e+00 
 1.93865264e-03  3.84233920e-09 -1.68308086e+02 -1.57197577e+00 
 1.99526231e-03  4.18885855e-09 -1.67558086e+02 -1.57201021e+00 
 2.05352503e-03  4.56662855e-09 -1.66808086e+02 -1.57204566e+00 
 2.11348904e-03  4.97846754e-09 -1.66058086e+02 -1.57208214e+00 
 2.17520403e-03  5.42744800e-09 -1.65308087e+02 -1.57211969e+00 
 2.23872114e-03  5.91691952e-09 -1.64558087e+02 -1.57215833e+00 
 2.30409298e-03  6.45053377e-09 -1.63808087e+02 -1.57219810e+00 
 2.37137371e-03  7.03227172e-09 -1.63058087e+02 -1.57223903e+00 
 2.44061907e-03  7.66647339e-09 -1.62308087e+02 -1.57228116e+00 
 2.51188643e-03  8.35787018e-09 -1.61558088e+02 -1.57232452e+00 
 2.58523484e-03  9.11162021e-09 -1.60808088e+02 -1.57236914e+00 
 2.66072506e-03  9.93334677e-09 -1.60058088e+02 -1.57241507e+00 
 2.73841963e-03  1.08291803e-08 -1.59308088e+02 -1.57246234e+00 
 2.81838293e-03  1.18058040e-08 -1.58558089e+02 -1.57251099e+00 
 2.90068120e-03  1.28705040e-08 -1.57808089e+02 -1.57256105e+00 
 2.98538262e-03  1.40312234e-08 -1.57058089e+02 -1.57261259e+00 
 3.07255737e-03  1.52966216e-08 -1.56308090e+02 -1.57266562e+00 
 3.16227766e-03  1.66761389e-08 -1.55558090e+02 -1.57272021e+00 
 3.25461783e-03  1.81800673e-08 -1.54808090e+02 -1.57277638e+00 
 3.34965439e-03  1.98196265e-08 -1.54058091e+02 -1.57283420e+00 
 3.44746607e-03  2.16070484e-08 -1.53308091e+02 -1.57289371e+00 
 3.54813389e-03  2.35556679e-08 -1.52558092e+02 -1.57295495e+00 
 3.65174127e-03  2.56800224e-08 -1.51808092e+02 -1.57301799e+00 
 3.75837404e-03  2.79959606e-08 -1.51058093e+02 -1.57308286e+00 
 3.86812055e-03  3.05207602e-08 -1.50308093e+02 -1.57314963e+00 
 3.98107171e-03  3.32732574e-08 -1.49558094e+02 -1.57321835e+00 
 4.09732110e-03  3.62739867e-08 -1.48808094e+02 -1.57328907e+00 
 4.21696503e-03  3.95453349e-08 -1.48058095e+02 -1.57336186e+00 
 4.34010264e-03  4.31117075e-08 -1.47308096e+02 -1.57343677e+00 
 4.46683592e-03  4.69997112e-08 -1.46558096e+02 -1.57351388e+00 
 4.59726989e-03  5.12383519e-08 -1.45808097e+02 -1.57359323e+00 
 4.73151259e-03  5.58592515e-08 -1.45058098e+02 -1.57367490e+00 
 4.86967525e-03  6.08968839e-08 -1.44308099e+02 -1.57375896e+00 
 5.01187234e-03  6.63888316e-08 -1.43558099e+02 -1.57384547e+00 
 5.15822165e-03  7.23760669e-08 -1.42808100e+02 -1.57393450e+00 
 5.30884444e-03  7.89032566e-08 -1.42058101e+02 -1.57402614e+00 
 5.46386550e-03  8.60190963e-08 -1.41308102e+02 -1.57412045e+00 
 5.62341325e-03  9.37766727e-08 -1.40558104e+02 -1.57421752e+00 
 5.78761988e-03  1.02233860e-07 -1.39808105e+02 -1.57431742e+00 
 5.95662144e-03  1.11453753e-07 -1.39058106e+02 -1.57442024e+00 
 6.13055792e-03  1.21505135e-07 -1.38308107e+02 -1.57452606e+00 
 6.30957344e-03  1.32462992e-07 -1.37558109e+02 -1.57463497e+00 
 6.49381632e-03  1.44409075e-07 -1.36808110e+02 -1.57474706e+00 
 6.68343918e-03  1.57432505e-07 -1.36058112e+02 -1.57486242e+00 
 6.87859912e-03  1.71630443e-07 -1.35308114e+02 -1.57498115e+00 
 7.07945784e-03  1.87108809e-07 -1.34558115e+02 -1.57510335e+00 
 7.28618175e-03  2.03983078e-07 -1.33808117e+02 -1.57522912e+00 
 7.49894209e-03  2.22379137e-07 -1.33058119e+02 -1.57535856e+00 
 7.71791516e-03  2.42434228e-07 -1.32308121e+02 -1.57549178e+00 
 7.94328235e-03  2.64297967e-07 -1.31558124e+02 -1.57562889e+00 
 8.17523038e-03  2.88133467e-07 -1.30808126e+02 -1.57577000e+00 
 8.41395142e-03  3.14118546e-07 -1.30058128e+02 -1.57591523e+00 
 8.65964323e-03  3.42447063e-07 -1.29308131e+02 -1.57606471e+00 
 8.91250938e-03  3.73330357e-07 -1.28558134e+02 -1.57621855e+00 
 9.17275935e-03  4.06998826e-07 -1.27808137e+02 -1.57637688e+00 
 9.44060876e-03  4.43703647e-07 -1.27058140e+02 -1.57653983e+00 
 9.71627952e-03  4.83718649e-07 -1.26308143e+02 -1.57670754e+00 
 1.00000000e-02  5.27342355e-07 -1.25558147e+02 -1.57688015e+00 
 1.02920053e-02  5.74900209e-07 -1.24808151e+02 -1.57705780e+00 
 1.05925373e-02  6.26747006e-07 -1.24058155e+02 -1.57724064e+00 
 1.09018449e-02  6.83269535e-07 -1.23308159e+02 -1.57742882e+00 
 1.12201845e-02  7.44889469e-07 -1.22558163e+02 -1.57762249e+00 
 1.15478198e-02  8.12066506e-07 -1.21808168e+02 -1.57782182e+00 
 1.18850223e-02  8.85301801e-07 -1.21058173e+02 -1.57802696e+00 
 1.22320712e-02  9.65141706e-07 -1.20308178e+02 -1.57823810e+00 
 1.25892541e-02  1.05218184e-06 -1.19558184e+02 -1.57845540e+00 
 1.29568670e-02  1.14707154e-06 -1.18808190e+02 -1.57867905e+00 
 1.33352143e-02  1.25051870e-06 -1.18058196e+02 -1.57890923e+00 
 1.37246096e-02  1.36329504e-06 -1.17308203e+02 -1.57914613e+00 
 1.41253754e-02  1.48624191e-06 -1.16558210e+02 -1.57938994e+00 
 1.45378439e-02  1.62027648e-06 -1.15808217e+02 -1.57964088e+00 
 1.49623566e-02  1.76639868e-06 -1.15058225e+02 -1.57989914e+00 
 1.53992653e-02  1.92569859e-06 -1.14308234e+02 -1.58016494e+00 
 1.58489319e-02  2.09936459e-06 -1.13558243e+02 -1.58043851e+00 
 1.63117291e-02  2.28869223e-06 -1.12808252e+02 -1.58072006e+00 
 1.67880402e-02  2.49509391e-06 -1.12058262e+02 -1.58100984e+00 
 1.72782598e-02  2.72010938e-06 -1.11308273e+02 -1.58130808e+00 
 1.77827941e-02  2.96541723e-06 -1.10558284e+02 -1.58161502e+00 
 1.83020611e-02  3.23284746e-06 -1.09808296e+02 -1.58193093e+00 
 1.88364909e-02  3.52439507e-06 -1.09058308e+02 -1.58225606e+00 
 1.93865264e-02  3.84223496e-06 -1.08308322e+02 -1.58259068e+00 
 1.99526231e-02  4.18873817e-06 -1.07558336e+02 -1.58293508e+00 
 2.05352503e-02  4.56648954e-06 -1.06808351e+02 -1.58328953e+00 
 2.11348904e-02  4.97830701e-06 -1.06058366e+02 -1.58365433e+00 
 2.17520403e-02  5.42726263e-06 -1.05308383e+02 -1.58402978e+00 
 2.23872114e-02  5.91670546e-06 -1.04558401e+02 -1.58441620e+00 
 2.30409298e-02  6.45028657e-06 -1.03808420e+02 -1.58481390e+00 
 2.37137371e-02  7.03198626e-06 -1.03058440e+02 -1.58522321e+00 
 2.44061907e-02  7.66614375e-06 -1.02308461e+02 -1.58564447e+00 
 2.51188643e-02  8.35748953e-06 -1.01558483e+02 -1.58607803e+00 
 2.58523484e-02  9.11118064e-06 -1.00808507e+02 -1.58652425e+00 
 2.66072506e-02  9.93283916e-06 -1.00058532e+02 -1.58698350e+00 
 2.73841963e-02  1.08285941e-05 -9.93085585e+01 -1.58745616e+00 
 2.81838293e-02  1.18051271e-05 -9.85585866e+01 -1.58794262e+00 
 2.90068120e-02  1.28697223e-05 -9.78086165e+01 -1.58844328e+00 
 2.98538262e-02  1.40303207e-05 -9.70586480e+01 -1.58895856e+00 
 3.07255737e-02  1.52955792e-05 -9.63086815e+01 -1.58948889e+00 
 3.16227766e-02  1.66749352e-05 -9.55587169e+01 -1.59003470e+00 
 3.25461783e-02  1.81786772e-05 -9.48087544e+01 -1.59059644e+00 
 3.34965439e-02  1.98180213e-05 -9.40587942e+01 -1.59117459e+00 
 3.44746607e-02  2.16051948e-05 -9.33088363e+01 -1.59176962e+00 
 3.54813389e-02  2.35535274e-05 -9.25588809e+01 -1.59238201e+00 
 3.65174127e-02  2.56775507e-05 -9.18089281e+01 -1.59301229e+00 
 3.75837404e-02  2.79931063e-05 -9.10589781e+01 -1.59366097e+00 
 3.86812055e-02  3.05174641e-05 -9.03090311e+01 -1.59432859e+00 
 3.98107171e-02  3.32694511e-05 -8.95590873e+01 -1.59501569e+00 
 4.09732110e-02  3.62695913e-05 -8.88091468e+01 -1.59572286e+00 
 4.21696503e-02  3.95402592e-05 -8.80592098e+01 -1.59645067e+00 
 4.34010264e-02  4.31058463e-05 -8.73092765e+01 -1.59719973e+00 
 4.46683592e-02  4.69929428e-05 -8.65593472e+01 -1.59797066e+00 
 4.59726989e-02  5.12305359e-05 -8.58094220e+01 -1.59876409e+00 
 4.73151259e-02  5.58502259e-05 -8.50595013e+01 -1.59958069e+00 
 4.86967525e-02  6.08864613e-05 -8.43095853e+01 -1.60042112e+00 
 5.01187234e-02  6.63767960e-05 -8.35596743e+01 -1.60128609e+00 
 5.15822165e-02  7.23621685e-05 -8.28097685e+01 -1.60217630e+00 
 5.30884444e-02  7.88872072e-05 -8.20598684e+01 -1.60309251e+00 
 5.46386550e-02  8.60005630e-05 -8.13099741e+01 -1.60403545e+00 
 5.62341325e-02  9.37552711e-05 -8.05600861e+01 -1.60500592e+00 
 5.78761988e-02  1.02209147e-04 -7.98102048e+01 -1.60600471e+00 
 5.95662144e-02  1.11425214e-04 -7.90603304e+01 -1.60703266e+00 
 6.13055792e-02  1.21472179e-04 -7.83104635e+01 -1.60809061e+00 
 6.30957344e-02  1.32424936e-04 -7.75606045e+01 -1.60917944e+00 
 6.49381632e-02  1.44365130e-04 -7.68107539e+01 -1.61030004e+00 
 6.68343918e-02  1.57381759e-04 -7.60609121e+01 -1.61145335e+00 
 6.87859912e-02  1.71571843e-04 -7.53110797e+01 -1.61264031e+00 
 7.07945784e-02  1.87041140e-04 -7.45612572e+01 -1.61386192e+00 
 7.28618175e-02  2.03904937e-04 -7.38114452e+01 -1.61511917e+00 
 7.49894209e-02  2.22288904e-04 -7.30616443e+01 -1.61641311e+00 
 7.71791516e-02  2.42330031e-04 -7.23118552e+01 -1.61774480e+00 
 7.94328235e-02  2.64177646e-04 -7.15620787e+01 -1.61911535e+00 
 8.17523038e-02  2.87994526e-04 -7.08123153e+01 -1.62052589e+00 
 8.41395142e-02  3.13958105e-04 -7.00625660e+01 -1.62197758e+00 
 8.65964323e-02  3.42261795e-04 -6.93128315e+01 -1.62347162e+00 
 8.91250938e-02  3.73116420e-04 -6.85631128e+01 -1.62500924e+00 
 9.17275935e-02  4.06751784e-04 -6.78134107e+01 -1.62659171e+00 
 9.44060876e-02  4.43418378e-04 -6.70637262e+01 -1.62822034e+00 
 9.71627952e-02  4.83389239e-04 -6.63140604e+01 -1.62989648e+00 
 1.00000000e-01  5.26961975e-04 -6.55644144e+01 -1.63162149e+00 
 1.02920053e-01  5.74460973e-04 -6.48147894e+01 -1.63339681e+00 
 1.05925373e-01  6.26239809e-04 -6.40651866e+01 -1.63522390e+00 
 1.09018449e-01  6.82683863e-04 -6.33156073e+01 -1.63710426e+00 
 1.12201845e-01  7.44213182e-04 -6.25660528e+01 -1.63903944e+00 
 1.15478198e-01  8.11285587e-04 -6.18165248e+01 -1.64103104e+00 
 1.18850223e-01  8.84400066e-04 -6.10670247e+01 -1.64308069e+00 
 1.22320712e-01  9.64100465e-04 -6.03175542e+01 -1.64519008e+00 
 1.25892541e-01  1.05097952e-03 -5.95681150e+01 -1.64736094e+00 
 1.29568670e-01  1.14568322e-03 -5.88187090e+01 -1.64959506e+00 
 1.33352143e-01  1.24891561e-03 -5.80693381e+01 -1.65189427e+00 
 1.37246096e-01  1.36144398e-03 -5.73200045e+01 -1.65426046e+00 
 1.41253754e-01  1.48410452e-03 -5.65707103e+01 -1.65669557e+00 
 1.45378439e-01  1.61780849e-03 -5.58214578e+01 -1.65920161e+00 
 1.49623566e-01  1.76354896e-03 -5.50722496e+01 -1.66178061e+00 
 1.53992653e-01  1.92240812e-03 -5.43230882e+01 -1.66443470e+00 
 1.58489319e-01  2.09556522e-03 -5.35739763e+01 -1.66716605e+00 
 1.63117291e-01  2.28430530e-03 -5.28249170e+01 -1.66997689e+00 
 1.67880402e-01  2.49002858e-03 -5.20759134e+01 -1.67286953e+00 
 1.72782598e-01  2.71426078e-03 -5.13269686e+01 -1.67584631e+00 
 1.77827941e-01  2.95866430e-03 -5.05780862e+01 -1.67890967e+00 
 1.83020611e-01  3.22505042e-03 -4.98292698e+01 -1.68206211e+00 
 1.88364909e-01  3.51539257e-03 -4.90805234e+01 -1.68530620e+00 
 1.93865264e-01  3.83184072e-03 -4.83318510e+01 -1.68864458e+00 
 1.99526231e-01  4.17673714e-03 -4.75832571e+01 -1.69207995e+00 
 2.05352503e-01  4.55263349e-03 -4.68347462e+01 -1.69561511e+00 
 2.11348904e-01  4.96230938e-03 -4.60863233e+01 -1.69925292e+00 
 2.17520403e-01  5.40879261e-03 -4.53379934e+01 -1.70299634e+00 
 2.23872114e-01  5.89538123e-03 -4.45897621e+01 -1.70684838e+00 
 2.30409298e-01  6.42566736e-03 -4.38416352e+01 -1.71081217e+00 
 2.37137371e-01  7.00356333e-03 -4.30936188e+01 -1.71489088e+00 
 2.44061907e-01  7.63332987e-03 -4.23457194e+01 -1.71908782e+00 
 2.51188643e-01  8.31960694e-03 -4.15979438e+01 -1.72340635e+00 
 2.58523484e-01  9.06744709e-03 -4.08502994e+01 -1.72784994e+00 
 2.66072506e-01  9.88235182e-03 -4.01027938e+01 -1.73242214e+00 
 2.73841963e-01  1.07703110e-02 -3.93554351e+01 -1.73712661e+00 
 2.81838293e-01  1.17378458e-02 -3.86082320e+01 -1.74196710e+00 
 2.90068120e-01  1.27920552e-02 -3.78611935e+01 -1.74694746e+00 
 2.98538262e-01  1.39406664e-02 -3.71143293e+01 -1.75207164e+00 
 3.07255737e-01  1.51920900e-02 -3.63676495e+01 -1.75734370e+00 
 3.16227766e-01  1.65554790e-02 -3.56211650e+01 -1.76276781e+00 
 3.25461783e-01  1.80407940e-02 -3.48748870e+01 -1.76834823e+00 
 3.34965439e-01  1.96588728e-02 -3.41288277e+01 -1.77408934e+00 
 3.44746607e-01  2.14215065e-02 -3.33829998e+01 -1.77999563e+00 
 3.54813389e-01  2.33415217e-02 -3.26374167e+01 -1.78607171e+00 
 3.65174127e-01  2.54328700e-02 -3.18920926e+01 -1.79232230e+00 
 3.75837404e-01  2.77107240e-02 -3.11470426e+01 -1.79875223e+00 
 3.86812055e-01  3.01915825e-02 -3.04022825e+01 -1.80536647e+00 
 3.98107171e-01  3.28933834e-02 -2.96578291e+01 -1.81217008e+00 
 4.09732110e-01  3.58356260e-02 -2.89137001e+01 -1.81916826e+00 
 4.21696503e-01  3.90395035e-02 -2.81699143e+01 -1.82636634e+00 
 4.34010264e-01  4.25280462e-02 -2.74264914e+01 -1.83376975e+00 
 4.46683592e-01  4.63262757e-02 -2.66834522e+01 -1.84138407e+00 
 4.59726989e-01  5.04613719e-02 -2.59408189e+01 -1.84921499e+00 
 4.73151259e-01  5.49628528e-02 -2.51986147e+01 -1.85726832e+00 
 4.86967525e-01  5.98627687e-02 -2.44568640e+01 -1.86555002e+00 
 5.01187234e-01  6.51959111e-02 -2.37155928e+01 -1.87406616e+00 
 5.15822165e-01  7.10000377e-02 -2.29748284e+01 -1.88282293e+00 
 5.30884444e-01  7.73161147e-02 -2.22345996e+01 -1.89182666e+00 
 5.46386550e-01  8.41885768e-02 -2.14949366e+01 -1.90108380e+00 
 5.62341325e-01  9.16656071e-02 -2.07558716e+01 -1.91060093e+00 
 5.78761988e-01  9.97994368e-02 -2.00174382e+01 -1.92038474e+00 
 5.95662144e-01  1.08646667e-01 -1.92796719e+01 -1.93044203e+00 
 6.13055792e-01  1.18268612e-01 -1.85426100e+01 -1.94077976e+00 
 6.30957344e-01  1.28731670e-01 -1.78062919e+01 -1.95140495e+00 
 6.49381632e-01  1.40107713e-01 -1.70707591e+01 -1.96232477e+00 
 6.68343918e-01  1.52474512e-01 -1.63360550e+01 -1.97354648e+00 
 6.87859912e-01  1.65916176e-01 -1.56022254e+01 -1.98507744e+00 
 7.07945784e-01  1.80523639e-01 -1.48693184e+01 -1.99692512e+00 
 7.28618175e-01  1.96395154e-01 -1.41373846e+01 -2.00909706e+00 
 7.49894209e-01  2.13636840e-01 -1.34064771e+01 -2.02160090e+00 
 7.71791516e-01  2.32363242e-01 -1.26766515e+01 -2.03444434e+00 
 7.94328235e-01  2.52697934e-01 -1.19479662e+01 -2.04763515e+00 
 8.17523038e-01  2.74774152e-01 -1.12204825e+01 -2.06118116e+00 
 8.41395142e-01  2.98735457e-01 -1.04942646e+01 -2.07509026e+00 
 8.65964323e-01  3.24736437e-01 -9.76937958e+00 -2.08937033e+00 
 8.91250938e-01  3.52943432e-01 -9.04589790e+00 -2.10402932e+00 
 9.17275935e-01  3.83535305e-01 -8.32389305e+00 -2.11907516e+00 
 9.44060876e-01  4.16704226e-01 -7.60344190e+00 -2.13451578e+00 
 9.71627952e-01  4.52656504e-01 -6.88462470e+00 -2.15035908e+00 
 1.00000000e+00  4.91613430e-01 -6.16752524e+00 -2.16661292e+00 
 1.02920053e+00  5.33812155e-01 -5.45223083e+00 -2.18328512e+00 
 1.05925373e+00  5.79506585e-01 -4.73883249e+00 -2.20038340e+00 
 1.09018449e+00  6.28968294e-01 -4.02742493e+00 -2.21791538e+00 
 1.12201845e+00  6.82487446e-01 -3.31810666e+00 -2.23588858e+00 
 1.15478198e+00  7.40373728e-01 -2.61098001e+00 -2.25431034e+00 
 1.18850223e+00  8.02957277e-01 -1.90615123e+00 -2.27318785e+00 
 1.22320712e+00  8.70589605e-01 -1.20373045e+00 -2.29252812e+00 
 1.25892541e+00  9.43644497e-01 -5.03831770e-01 -2.31233791e+00 
 1.29568670e+00  1.02251889e+00  1.93426793e-01 -2.33262374e+00 
 1.33352143e+00  1.10763371e+00  8.87923267e-01 -2.35339187e+00 
 1.37246096e+00  1.19943464e+00  1.57953177e+00 -2.37464821e+00 
 1.41253754e+00  1.29839288e+00  2.26812254e+00 -2.39639838e+00 
 1.45378439e+00  1.40500574e+00  2.95356199e+00 -2.41864759e+00 
 1.49623566e+00  1.51979720e+00  3.63571281e+00 -2.44140068e+00 
 1.53992653e+00  1.64331833e+00  4.31443401e+00 -2.46466205e+00 
 1.58489319e+00  1.77614760e+00  4.98958108e+00 -2.48843562e+00 
 1.63117291e+00  1.91889100e+00  5.66100610e+00 -2.51272484e+00 
 1.67880402e+00  2.07218200e+00  6.32855792e+00 -2.53753261e+00 
 1.72782598e+00  2.23668135e+00  6.99208231e+00 -2.56286130e+00 
 1.77827941e+00  2.41307660e+00  7.65142217e+00 -2.58871267e+00 
 1.83020611e+00  2.60208145e+00  8.30641775e+00 -2.61508788e+00 
 1.88364909e+00  2.80443478e+00  8.95690688e+00 -2.64198743e+00 
 1.93865264e+00  3.02089940e+00  9.60272525e+00 -2.66941117e+00 
 1.99526231e+00  3.25226057e+00  1.02437067e+01 -2.69735825e+00 
 2.05352503e+00  3.49932410e+00  1.08796834e+01 -2.72582709e+00 
 2.11348904e+00  3.76291420e+00  1.15104863e+01 -2.75481539e+00 
 2.17520403e+00  4.04387084e+00  1.21359455e+01 -2.78432008e+00 
 2.23872114e+00  4.34304691e+00  1.27558904e+01 -2.81433733e+00 
 2.30409298e+00  4.66130485e+00  1.33701501e+01 -2.84486252e+00 
 2.37137371e+00  4.99951298e+00  1.39785540e+01 -2.87589022e+00 
 2.44061907e+00  5.35854135e+00  1.45809317e+01 -2.90741421e+00 
 2.51188643e+00  5.73925731e+00  1.51771139e+01 -2.93942746e+00 
 2.58523484e+00  6.14252057e+00  1.57669324e+01 -2.97192210e+00 
 2.66072506e+00  6.56917794e+00  1.63502205e+01 -3.00488948e+00 
 2.73841963e+00  7.02005774e+00  1.69268137e+01 -3.03832012e+00 
 2.81838293e+00  7.49596376e+00  1.74965496e+01 -3.07220372e+00 
 2.90068120e+00  7.99766905e+00  1.80592686e+01 -3.10652920e+00 
 2.98538262e+00  8.52590928e+00  1.86148141e+01 -3.14128467e+00 
 3.07255737e+00  9.08137600e+00  1.91630331e+01  3.10672783e+00 
 3.16227766e+00  9.66470958e+00  1.97037762e+01  3.07115112e+00 
 3.25461783e+00  1.02764922e+01  2.02368979e+01  3.03518469e+00 
 3.34965439e+00  1.09172404e+01  2.07622575e+01  2.99884347e+00 
 3.44746607e+00  1.15873984e+01  2.12797188e+01  2.96214307e+00 
 3.54813389e+00  1.22873302e+01  2.17891506e+01  2.92509985e+00 
 3.65174127e+00  1.30173133e+01  2.22904271e+01  2.88773081e+00 
 3.75837404e+00  1.37775317e+01  2.27834284e+01  2.85005362e+00 
 3.86812055e+00  1.45680694e+01  2.32680400e+01  2.81208658e+00 
 3.98107171e+00  1.53889045e+01  2.37441541e+01  2.77384858e+00 
 4.09732110e+00  1.62399038e+01  2.42116690e+01  2.73535911e+00 
 4.21696503e+00  1.71208177e+01  2.46704901e+01  2.69663821e+00 
 4.34010264e+00  1.80312764e+01  2.51205294e+01  2.65770643e+00 
 4.46683592e+00  1.89707861e+01  2.55617066e+01  2.61858484e+00 
 4.59726989e+00  1.99387269e+01  2.59939485e+01  2.57929494e+00 
 4.73151259e+00  2.09343509e+01  2.64171900e+01  2.53985868e+00 
 4.86967525e+00  2.19567821e+01  2.68313738e+01  2.50029840e+00 
 5.01187234e+00  2.30050165e+01  2.72364510e+01  2.46063679e+00 
 5.15822165e+00  2.40779242e+01  2.76323809e+01  2.42089685e+00 
 5.30884444e+00  2.51742522e+01  2.80191316e+01  2.38110186e+00 
 5.46386550e+00  2.62926284e+01  2.83966801e+01  2.34127533e+00 
 5.62341325e+00  2.74315668e+01  2.87650123e+01  2.30144095e+00 
 5.78761988e+00  2.85894740e+01  2.91241233e+01  2.26162254e+00 
 5.95662144e+00  2.97646567e+01  2.94740176e+01  2.22184400e+00 
 6.13055792e+00  3.09553305e+01  2.98147089e+01  2.18212928e+00 
 6.30957344e+00  3.21596291e+01  3.01462206e+01  2.14250227e+00 
 6.49381632e+00  3.33756153e+01  3.04685856e+01  2.10298680e+00 
