 frequency       onoise_spectrum inoise_spectrum
 1.00000000e+01  1.04044904e-04  4.22840161e-06 
 1.02920053e+01  1.02299323e-04  4.04836194e-06 
 1.05925373e+01  1.00494198e-04  3.87610067e-06 
 1.09018449e+01  9.86350344e-05  3.71127336e-06 
 1.12201845e+01  9.67273972e-05  3.55355166e-06 
 1.15478198e+01  9.47768731e-05  3.40262246e-06 
 1.18850223e+01  9.27890361e-05  3.25818709e-06 
 1.22320712e+01  9.07694145e-05  3.11996064e-06 
 1.25892541e+01  8.87234586e-05  2.98767122e-06 
 1.29568670e+01  8.66565115e-05  2.86105936e-06 
 1.33352143e+01  8.45737816e-05  2.73987740e-06 
 1.37246096e+01  8.24803183e-05  2.62388887e-06 
 1.41253754e+01  8.03809896e-05  2.51286796e-06 
 1.45378439e+01  7.82804630e-05  2.40659906e-06 
 1.49623566e+01  7.61831891e-05  2.30487618e-06 
 1.53992653e+01  7.40933881e-05  2.20750256e-06 
 1.58489319e+01  7.20150387e-05  2.11429022e-06 
 1.63117291e+01  6.99518704e-05  2.02505950e-06 
 1.67880402e+01  6.79073577e-05  1.93963875e-06 
 1.72782598e+01  6.58847168e-05  1.85786386e-06 
 1.77827941e+01  6.38869055e-05  1.77957801e-06 
 1.83020611e+01  6.19166237e-05  1.70463125e-06 
 1.88364909e+01  5.99763174e-05  1.63288022e-06 
 1.93865264e+01  5.80681829e-05  1.56418786e-06 
 1.99526231e+01  5.61941736e-05  1.49842310e-06 
 2.05352503e+01  5.43560077e-05  1.43546058e-06 
 2.11348904e+01  5.25551768e-05  1.37518041e-06 
 2.17520403e+01  5.07929556e-05  1.31746794e-06 
 2.23872114e+01  4.90704127e-05  1.26221348e-06 
 2.30409298e+01  4.73884208e-05  1.20931210e-06 
 2.37137371e+01  4.57476688e-05  1.15866342e-06 
 2.44061907e+01  4.41486726e-05  1.11017141e-06 
 2.51188643e+01  4.25917874e-05  1.06374417e-06 
 2.58523484e+01  4.10772188e-05  1.01929380e-06 
 2.66072506e+01  3.96050346e-05  9.76736156e-07 
 2.73841963e+01  3.81751758e-05  9.35990735e-07 
 2.81838293e+01  3.67874679e-05  8.96980492e-07 
 2.90068120e+01  3.54416313e-05  8.59631696e-07 
 2.98538262e+01  3.41372916e-05  8.23873780e-07 
 3.07255737e+01  3.28739893e-05  7.89639204e-07 
 3.16227766e+01  3.16511894e-05  7.56863322e-07 
 3.25461783e+01  3.04682897e-05  7.25484259e-07 
 3.34965439e+01  2.93246297e-05  6.95442786e-07 
 3.44746607e+01  2.82194978e-05  6.66682206e-07 
 3.54813389e+01  2.71521390e-05  6.39148245e-07 
 3.65174127e+01  2.61217614e-05  6.12788947e-07 
 3.75837404e+01  2.51275426e-05  5.87554572e-07 
 3.86812055e+01  2.41686356e-05  5.63397500e-07 
 3.98107171e+01  2.32441736e-05  5.40272143e-07 
 4.09732110e+01  2.23532755e-05  5.18134851e-07 
 4.21696503e+01  2.14950496e-05  4.96943833e-07 
 4.34010264e+01  2.06685985e-05  4.76659076e-07 
 4.46683592e+01  1.98730217e-05  4.57242265e-07 
 4.59726989e+01  1.91074197e-05  4.38656716e-07 
 4.73151259e+01  1.83708962e-05  4.20867299e-07 
 4.86967525e+01  1.76625614e-05  4.03840375e-07 
 5.01187234e+01  1.69815335e-05  3.87543732e-07 
 5.15822165e+01  1.63269414e-05  3.71946521e-07 
 5.30884444e+01  1.56979259e-05  3.57019199e-07 
 5.46386550e+01  1.50936416e-05  3.42733473e-07 
 5.62341325e+01  1.45132579e-05  3.29062246e-07 
 5.78761988e+01  1.39559602e-05  3.15979564e-07 
 5.95662144e+01  1.34209510e-05  3.03460569e-07 
 6.13055792e+01  1.29074503e-05  2.91481450e-07 
 6.30957344e+01  1.24146963e-05  2.80019399e-07 
 6.49381632e+01  1.19419460e-05  2.69052568e-07 
 6.68343918e+01  1.14884754e-05  2.58560024e-07 
 6.87859912e+01  1.10535797e-05  2.48521717e-07 
 7.07945784e+01  1.06365736e-05  2.38918433e-07 
 7.28618175e+01  1.02367912e-05  2.29731765e-07 
 7.49894209e+01  9.85358580e-06  2.20944075e-07 
 7.71791516e+01  9.48633029e-06  2.12538459e-07 
 7.94328235e+01  9.13441646e-06  2.04498720e-07 
 8.17523038e+01  8.79725509e-06  1.96809332e-07 
 8.41395142e+01  8.47427558e-06  1.89455417e-07 
 8.65964323e+01  8.16492570e-06  1.82422712e-07 
 8.91250938e+01  7.86867123e-06  1.75697542e-07 
 9.17275935e+01  7.58499562e-06  1.69266800e-07 
 9.44060876e+01  7.31339962e-06  1.63117917e-07 
 9.71627952e+01  7.05340086e-06  1.57238842e-07 
 1.00000000e+02  6.80453347e-06  1.51618017e-07 
 1.02920053e+02  6.56634766e-06  1.46244359e-07 
 1.05925373e+02  6.33840928e-06  1.41107238e-07 
 1.09018449e+02  6.12029940e-06  1.36196454e-07 
 1.12201845e+02  5.91161391e-06  1.31502227e-07 
 1.15478198e+02  5.71196305e-06  1.27015172e-07 
 1.18850223e+02  5.52097102e-06  1.22726284e-07 
 1.22320712e+02  5.33827553e-06  1.18626923e-07 
 1.25892541e+02  5.16352745e-06  1.14708800e-07 
 1.29568670e+02  4.99639032e-06  1.10963958e-07 
 1.33352143e+02  4.83654003e-06  1.07384765e-07 
 1.37246096e+02  4.68366441e-06  1.03963893e-07 
 1.41253754e+02  4.53746282e-06  1.00694313e-07 
 1.45378439e+02  4.39764585e-06  9.75692763e-08 
 1.49623566e+02  4.26393492e-06  9.45823100e-08 
 1.53992653e+02  4.13606196e-06  9.17272016e-08 
 1.58489319e+02  4.01376907e-06  8.89979906e-08 
 1.63117291e+02  3.89680821e-06  8.63889589e-08 
 1.67880402e+02  3.78494089e-06  8.38946215e-08 
 1.72782598e+02  3.67793784e-06  8.15097179e-08 
 1.77827941e+02  3.57557880e-06  7.92292038e-08 
 1.83020611e+02  3.47765217e-06  7.70482434e-08 
 1.88364909e+02  3.38395477e-06  7.49622020e-08 
 1.93865264e+02  3.29429159e-06  7.29666386e-08 
 1.99526231e+02  3.20847552e-06  7.10572993e-08 
 2.05352503e+02  3.12632713e-06  6.92301107e-08 
 2.11348904e+02  3.04767442e-06  6.74811740e-08 
 2.17520403e+02  2.97235259e-06  6.58067582e-08 
 2.23872114e+02  2.90020383e-06  6.42032953e-08 
 2.30409298e+02  2.83107708e-06  6.26673740e-08 
 2.37137371e+02  2.76482784e-06  6.11957344e-08 
 2.44061907e+02  2.70131796e-06  5.97852631e-08 
 2.51188643e+02  2.64041541e-06  5.84329878e-08 
 2.58523484e+02  2.58199410e-06  5.71360724e-08 
 2.66072506e+02  2.52593370e-06  5.58918123e-08 
 2.73841963e+02  2.47211940e-06  5.46976295e-08 
 2.81838293e+02  2.42044177e-06  5.35510680e-08 
 2.90068120e+02  2.37079651e-06  5.24497896e-08 
 2.98538262e+02  2.32308435e-06  5.13915689e-08 
 3.07255737e+02  2.27721076e-06  5.03742896e-08 
 3.16227766e+02  2.23308588e-06  4.93959399e-08 
 3.25461783e+02  2.19062426e-06  4.84546082e-08 
 3.34965439e+02  2.14974473e-06  4.75484796e-08 
 3.44746607e+02  2.11037019e-06  4.66758314e-08 
 3.54813389e+02  2.07242751e-06  4.58350294e-08 
 3.65174127e+02  2.03584728e-06  4.50245241e-08 
 3.75837404e+02  2.00056371e-06  4.42428470e-08 
 3.86812055e+02  1.96651445e-06  4.34886069e-08 
 3.98107171e+02  1.93364044e-06  4.27604866e-08 
 4.09732110e+02  1.90188575e-06  4.20572392e-08 
 4.21696503e+02  1.87119745e-06  4.13776849e-08 
 4.34010264e+02  1.84152547e-06  4.07207079e-08 
 4.46683592e+02  1.81282242e-06  4.00852530e-08 
 4.59726989e+02  1.78504353e-06  3.94703228e-08 
 4.73151259e+02  1.75814645e-06  3.88749747e-08 
 4.86967525e+02  1.73209116e-06  3.82983182e-08 
 5.01187234e+02  1.70683986e-06  3.77395120e-08 
 5.15822165e+02  1.68235682e-06  3.71977615e-08 
 5.30884444e+02  1.65860831e-06  3.66723165e-08 
 5.46386550e+02  1.63556245e-06  3.61624683e-08 
 5.62341325e+02  1.61318915e-06  3.56675480e-08 
 5.78761988e+02  1.59145998e-06  3.51869239e-08 
 5.95662144e+02  1.57034808e-06  3.47199996e-08 
 6.13055792e+02  1.54982811e-06  3.42662118e-08 
 6.30957344e+02  1.52987611e-06  3.38250287e-08 
 6.49381632e+02  1.51046944e-06  3.33959481e-08 
 6.68343918e+02  1.49158672e-06  3.29784952e-08 
 6.87859912e+02  1.47320774e-06  3.25722220e-08 
 7.07945784e+02  1.45531340e-06  3.21767046e-08 
 7.28618175e+02  1.43788563e-06  3.17915425e-08 
 7.49894209e+02  1.42090733e-06  3.14163569e-08 
 7.71791516e+02  1.40436234e-06  3.10507896e-08 
 7.94328235e+02  1.38823532e-06  3.06945014e-08 
 8.17523038e+02  1.37251179e-06  3.03471713e-08 
 8.41395142e+02  1.35717800e-06  3.00084953e-08 
 8.65964323e+02  1.34222089e-06  2.96781849e-08 
 8.91250938e+02  1.32762812e-06  2.93559671e-08 
 9.17275935e+02  1.31338794e-06  2.90415824e-08 
 9.44060876e+02  1.29948918e-06  2.87347846e-08 
 9.71627952e+02  1.28592125e-06  2.84353399e-08 
 1.00000000e+03  1.27267405e-06  2.81430258e-08 
 1.02920053e+03  1.25973797e-06  2.78576307e-08 
 1.05925373e+03  1.24710385e-06  2.75789531e-08 
 1.09018449e+03  1.23476296e-06  2.73068011e-08 
 1.12201845e+03  1.22270695e-06  2.70409916e-08 
 1.15478198e+03  1.21092786e-06  2.67813499e-08 
 1.18850223e+03  1.19941805e-06  2.65277088e-08 
 1.22320712e+03  1.18817023e-06  2.62799089e-08 
 1.25892541e+03  1.17717740e-06  2.60377973e-08 
 1.29568670e+03  1.16643284e-06  2.58012277e-08 
 1.33352143e+03  1.15593011e-06  2.55700596e-08 
 1.37246096e+03  1.14566299e-06  2.53441585e-08 
 1.41253754e+03  1.13562553e-06  2.51233950e-08 
 1.45378439e+03  1.12581196e-06  2.49076445e-08 
 1.49623566e+03  1.11621673e-06  2.46967874e-08 
 1.53992653e+03  1.10683447e-06  2.44907083e-08 
 1.58489319e+03  1.09766000e-06  2.42892958e-08 
 1.63117291e+03  1.08868830e-06  2.40924427e-08 
 1.67880402e+03  1.07991449e-06  2.39000451e-08 
 1.72782598e+03  1.07133386e-06  2.37120026e-08 
 1.77827941e+03  1.06294179e-06  2.35282182e-08 
 1.83020611e+03  1.05473384e-06  2.33485977e-08 
 1.88364909e+03  1.04670565e-06  2.31730499e-08 
 1.93865264e+03  1.03885297e-06  2.30014862e-08 
 1.99526231e+03  1.03117166e-06  2.28338206e-08 
 2.05352503e+03  1.02365768e-06  2.26699695e-08 
 2.11348904e+03  1.01630706e-06  2.25098516e-08 
 2.17520403e+03  1.00911593e-06  2.23533876e-08 
 2.23872114e+03  1.00208047e-06  2.22005004e-08 
 2.30409298e+03  9.95196962e-07  2.20511149e-08 
 2.37137371e+03  9.88461720e-07  2.19051576e-08 
 2.44061907e+03  9.81871134e-07  2.17625570e-08 
 2.51188643e+03  9.75421647e-07  2.16232430e-08 
 2.58523484e+03  9.69109747e-07  2.14871474e-08 
 2.66072506e+03  9.62931970e-07  2.13542033e-08 
 2.73841963e+03  9.56884892e-07  2.12243454e-08 
 2.81838293e+03  9.50965124e-07  2.10975096e-08 
 2.90068120e+03  9.45169312e-07  2.09736334e-08 
 2.98538262e+03  9.39494129e-07  2.08526553e-08 
 3.07255737e+03  9.33936273e-07  2.07345153e-08 
 3.16227766e+03  9.28492465e-07  2.06191544e-08 
 3.25461783e+03  9.23159442e-07  2.05065149e-08 
 3.34965439e+03  9.17933955e-07  2.03965400e-08 
 3.44746607e+03  9.12812766e-07  2.02891743e-08 
 3.54813389e+03  9.07792644e-07  2.01843632e-08 
 3.65174127e+03  9.02870363e-07  2.00820531e-08 
 3.75837404e+03  8.98042695e-07  1.99821916e-08 
 3.86812055e+03  8.93306410e-07  1.98847271e-08 
 3.98107171e+03  8.88658271e-07  1.97896089e-08 
 4.09732110e+03  8.84095029e-07  1.96967874e-08 
 4.21696503e+03  8.79613425e-07  1.96062137e-08 
 4.34010264e+03  8.75210178e-07  1.95178399e-08 
 4.46683592e+03  8.70881990e-07  1.94316190e-08 
 4.59726989e+03  8.66625534e-07  1.93475046e-08 
 4.73151259e+03  8.62437458e-07  1.92654514e-08 
 4.86967525e+03  8.58314375e-07  1.91854147e-08 
 5.01187234e+03  8.54252864e-07  1.91073509e-08 
 5.15822165e+03  8.50249462e-07  1.90312168e-08 
 5.30884444e+03  8.46300662e-07  1.89569702e-08 
 5.46386550e+03  8.42402909e-07  1.88845697e-08 
 5.62341325e+03  8.38552596e-07  1.88139746e-08 
 5.78761988e+03  8.34746058e-07  1.87451447e-08 
 5.95662144e+03  8.30979569e-07  1.86780410e-08 
 6.13055792e+03  8.27249338e-07  1.86126249e-08 
 6.30957344e+03  8.23551506e-07  1.85488585e-08 
 6.49381632e+03  8.19882136e-07  1.84867047e-08 
 6.68343918e+03  8.16237217e-07  1.84261272e-08 
 6.87859912e+03  8.12612652e-07  1.83670902e-08 
 7.07945784e+03  8.09004259e-07  1.83095587e-08 
 7.28618175e+03  8.05407762e-07  1.82534983e-08 
 7.49894209e+03  8.01818792e-07  1.81988753e-08 
 7.71791516e+03  7.98232880e-07  1.81456567e-08 
 7.94328235e+03  7.94645451e-07  1.80938101e-08 
 8.17523038e+03  7.91051827e-07  1.80433036e-08 
 8.41395142e+03  7.87447216e-07  1.79941064e-08 
 8.65964323e+03  7.83826713e-07  1.79461877e-08 
 8.91250938e+03  7.80185299e-07  1.78995179e-08 
 9.17275935e+03  7.76517834e-07  1.78540676e-08 
 9.44060876e+03  7.72819058e-07  1.78098082e-08 
 9.71627952e+03  7.69083588e-07  1.77667118e-08 
 1.00000000e+04  7.65305923e-07  1.77247509e-08 
 1.02920053e+04  7.61480434e-07  1.76838987e-08 
 1.05925373e+04  7.57601376e-07  1.76441289e-08 
 1.09018449e+04  7.53662881e-07  1.76054160e-08 
 1.12201845e+04  7.49658969e-07  1.75677347e-08 
 1.15478198e+04  7.45583544e-07  1.75310607e-08 
 1.18850223e+04  7.41430407e-07  1.74953698e-08 
 1.22320712e+04  7.37193257e-07  1.74606389e-08 
 1.25892541e+04  7.32865704e-07  1.74268450e-08 
 1.29568670e+04  7.28441274e-07  1.73939658e-08 
 1.33352143e+04  7.23913427e-07  1.73619795e-08 
 1.37246096e+04  7.19275565e-07  1.73308651e-08 
 1.41253754e+04  7.14521052e-07  1.73006016e-08 
 1.45378439e+04  7.09643229e-07  1.72711691e-08 
 1.49623566e+04  7.04635433e-07  1.72425479e-08 
 1.53992653e+04  6.99491026e-07  1.72147187e-08 
 1.58489319e+04  6.94203411e-07  1.71876631e-08 
 1.63117291e+04  6.88766065e-07  1.71613629e-08 
 1.67880402e+04  6.83172567e-07  1.71358006e-08 
 1.72782598e+04  6.77416630e-07  1.71109589e-08 
 1.77827941e+04  6.71492135e-07  1.70868214e-08 
 1.83020611e+04  6.65393169e-07  1.70633719e-08 
 1.88364909e+04  6.59114065e-07  1.70405947e-08 
 1.93865264e+04  6.52649442e-07  1.70184749e-08 
 1.99526231e+04  6.45994246e-07  1.69969976e-08 
