 frequency       onoise_spectrum inoise_spectrum
 1.00000000e+01  1.94370112e-04  3.16326794e-06 
 1.02920053e+01  1.90397245e-04  3.02939710e-06 
 1.05925373e+01  1.86349538e-04  2.90122771e-06 
 1.09018449e+01  1.82238622e-04  2.77851491e-06 
 1.12201845e+01  1.78075902e-04  2.66102456e-06 
 1.15478198e+01  1.73872505e-04  2.54853276e-06 
 1.18850223e+01  1.69639223e-04  2.44082540e-06 
 1.22320712e+01  1.65386470e-04  2.33769769e-06 
 1.25892541e+01  1.61124242e-04  2.23895374e-06 
 1.29568670e+01  1.56862079e-04  2.14440620e-06 
 1.33352143e+01  1.52609040e-04  2.05387580e-06 
 1.37246096e+01  1.48373680e-04  1.96719108e-06 
 1.41253754e+01  1.44164029e-04  1.88418798e-06 
 1.45378439e+01  1.39987585e-04  1.80470952e-06 
 1.49623566e+01  1.35851302e-04  1.72860550e-06 
 1.53992653e+01  1.31761594e-04  1.65573220e-06 
 1.58489319e+01  1.27724332e-04  1.58595207e-06 
 1.63117291e+01  1.23744852e-04  1.51913351e-06 
 1.67880402e+01  1.19827965e-04  1.45515054e-06 
 1.72782598e+01  1.15977972e-04  1.39388261e-06 
 1.77827941e+01  1.12198676e-04  1.33521433e-06 
 1.83020611e+01  1.08493400e-04  1.27903527e-06 
 1.88364909e+01  1.04865012e-04  1.22523971e-06 
 1.93865264e+01  1.01315939e-04  1.17372647e-06 
 1.99526231e+01  9.78481949e-05  1.12439869e-06 
 2.05352503e+01  9.44634029e-05  1.07716365e-06 
 2.11348904e+01  9.11628177e-05  1.03193260e-06 
 2.17520403e+01  8.79473510e-05  9.88620574e-07 
 2.23872114e+01  8.48175952e-05  9.47146220e-07 
 2.30409298e+01  8.17738476e-05  9.07431669e-07 
 2.37137371e+01  7.88161337e-05  8.69402366e-07 
 2.44061907e+01  7.59442306e-05  8.32986932e-07 
 2.51188643e+01  7.31576887e-05  7.98117029e-07 
 2.58523484e+01  7.04558536e-05  7.64727227e-07 
 2.66072506e+01  6.78378864e-05  7.32754880e-07 
 2.73841963e+01  6.53027837e-05  7.02140009e-07 
 2.81838293e+01  6.28493957e-05  6.72825183e-07 
 2.90068120e+01  6.04764441e-05  6.44755411e-07 
 2.98538262e+01  5.81825387e-05  6.17878043e-07 
 3.07255737e+01  5.59661923e-05  5.92142660e-07 
 3.16227766e+01  5.38258355e-05  5.67500989e-07 
 3.25461783e+01  5.17598302e-05  5.43906804e-07 
 3.34965439e+01  4.97664812e-05  5.21315840e-07 
 3.44746607e+01  4.78440483e-05  4.99685713e-07 
 3.54813389e+01  4.59907561e-05  4.78975835e-07 
 3.65174127e+01  4.42048041e-05  4.59147338e-07 
 3.75837404e+01  4.24843745e-05  4.40163006e-07 
 3.86812055e+01  4.08276408e-05  4.21987197e-07 
 3.98107171e+01  3.92327740e-05  4.04585780e-07 
 4.09732110e+01  3.76979497e-05  3.87926071e-07 
 4.21696503e+01  3.62213531e-05  3.71976770e-07 
 4.34010264e+01  3.48011843e-05  3.56707903e-07 
 4.46683592e+01  3.34356625e-05  3.42090762e-07 
 4.59726989e+01  3.21230300e-05  3.28097858e-07 
 4.73151259e+01  3.08615552e-05  3.14702863e-07 
 4.86967525e+01  2.96495360e-05  3.01880561e-07 
 5.01187234e+01  2.84853018e-05  2.89606806e-07 
 5.15822165e+01  2.73672155e-05  2.77858468e-07 
 5.30884444e+01  2.62936756e-05  2.66613398e-07 
 5.46386550e+01  2.52631173e-05  2.55850381e-07 
 5.62341325e+01  2.42740137e-05  2.45549096e-07 
 5.78761988e+01  2.33248764e-05  2.35690083e-07 
 5.95662144e+01  2.24142563e-05  2.26254698e-07 
 6.13055792e+01  2.15407440e-05  2.17225087e-07 
 6.30957344e+01  2.07029697e-05  2.08584146e-07 
 6.49381632e+01  1.98996037e-05  2.00315490e-07 
 6.68343918e+01  1.91293557e-05  1.92403424e-07 
 6.87859912e+01  1.83909750e-05  1.84832914e-07 
 7.07945784e+01  1.76832497e-05  1.77589556e-07 
 7.28618175e+01  1.70050067e-05  1.70659548e-07 
 7.49894209e+01  1.63551108e-05  1.64029671e-07 
 7.71791516e+01  1.57324640e-05  1.57687255e-07 
 7.94328235e+01  1.51360052e-05  1.51620162e-07 
 8.17523038e+01  1.45647090e-05  1.45816759e-07 
 8.41395142e+01  1.40175851e-05  1.40265901e-07 
 8.65964323e+01  1.34936777e-05  1.34956903e-07 
 8.91250938e+01  1.29920640e-05  1.29879526e-07 
 9.17275935e+01  1.25118542e-05  1.25023957e-07 
 9.44060876e+01  1.20521898e-05  1.20380788e-07 
 9.71627952e+01  1.16122430e-05  1.15940999e-07 
 1.00000000e+02  1.11912162e-05  1.11695943e-07 
 1.02920053e+02  1.07883404e-05  1.07637331e-07 
 1.05925373e+02  1.04028747e-05  1.03757210e-07 
 1.09018449e+02  1.00341054e-05  1.00047957e-07 
 1.12201845e+02  9.68134511e-06  9.65022596e-08 
 1.15478198e+02  9.34393167e-06  9.31131029e-08 
 1.18850223e+02  9.02122757e-06  8.98737586e-08 
 1.22320712e+02  8.71261901e-06  8.67777715e-08 
 1.25892541e+02  8.41751508e-06  8.38189484e-08 
 1.29568670e+02  8.13534695e-06  8.09913463e-08 
 1.33352143e+02  7.86556716e-06  7.82892627e-08 
 1.37246096e+02  7.60764884e-06  7.57072247e-08 
 1.41253754e+02  7.36108499e-06  7.32399802e-08 
 1.45378439e+02  7.12538777e-06  7.08824880e-08 
 1.49623566e+02  6.90008786e-06  6.86299098e-08 
 1.53992653e+02  6.68473380e-06  6.64776018e-08 
 1.58489319e+02  6.47889135e-06  6.44211064e-08 
 1.63117291e+02  6.28214291e-06  6.24561457e-08 
 1.67880402e+02  6.09408696e-06  6.05786136e-08 
 1.72782598e+02  5.91433748e-06  5.87845697e-08 
 1.77827941e+02  5.74252344e-06  5.70702328e-08 
 1.83020611e+02  5.57828829e-06  5.54319749e-08 
 1.88364909e+02  5.42128951e-06  5.38663155e-08 
 1.93865264e+02  5.27119808e-06  5.23699161e-08 
 1.99526231e+02  5.12769810e-06  5.09395755e-08 
 2.05352503e+02  4.99048635e-06  4.95722241e-08 
 2.11348904e+02  4.85927185e-06  4.82649203e-08 
 2.17520403e+02  4.73377551e-06  4.70148450e-08 
 2.23872114e+02  4.61372972e-06  4.58192981e-08 
 2.30409298e+02  4.49887800e-06  4.46756942e-08 
 2.37137371e+02  4.38897464e-06  4.35815585e-08 
 2.44061907e+02  4.28378439e-06  4.25345234e-08 
 2.51188643e+02  4.18308206e-06  4.15323246e-08 
 2.58523484e+02  4.08665227e-06  4.05727976e-08 
 2.66072506e+02  3.99428907e-06  3.96538743e-08 
 2.73841963e+02  3.90579570e-06  3.87735802e-08 
 2.81838293e+02  3.82098423e-06  3.79300301e-08 
 2.90068120e+02  3.73967528e-06  3.71214262e-08 
 2.98538262e+02  3.66169776e-06  3.63460542e-08 
 3.07255737e+02  3.58688852e-06  3.56022804e-08 
 3.16227766e+02  3.51509216e-06  3.48885492e-08 
 3.25461783e+02  3.44616065e-06  3.42033798e-08 
 3.34965439e+02  3.37995316e-06  3.35453635e-08 
 3.44746607e+02  3.31633570e-06  3.29131611e-08 
 3.54813389e+02  3.25518093e-06  3.23054998e-08 
 3.65174127e+02  3.19636785e-06  3.17211710e-08 
 3.75837404e+02  3.13978157e-06  3.11590272e-08 
 3.86812055e+02  3.08531305e-06  3.06179802e-08 
 3.98107171e+02  3.03285888e-06  3.00969975e-08 
 4.09732110e+02  2.98232099e-06  2.95951008e-08 
 4.21696503e+02  2.93360646e-06  2.91113635e-08 
 4.34010264e+02  2.88662727e-06  2.86449076e-08 
 4.46683592e+02  2.84130008e-06  2.81949024e-08 
 4.59726989e+02  2.79754602e-06  2.77605619e-08 
 4.73151259e+02  2.75529045e-06  2.73411425e-08 
 4.86967525e+02  2.71446279e-06  2.69359410e-08 
 5.01187234e+02  2.67499632e-06  2.65442930e-08 
 5.15822165e+02  2.63682793e-06  2.61655702e-08 
 5.30884444e+02  2.59989801e-06  2.57991794e-08 
 5.46386550e+02  2.56415022e-06  2.54445601e-08 
 5.62341325e+02  2.52953135e-06  2.51011827e-08 
 5.78761988e+02  2.49599112e-06  2.47685474e-08 
 5.95662144e+02  2.46348204e-06  2.44461821e-08 
 6.13055792e+02  2.43195925e-06  2.41336410e-08 
 6.30957344e+02  2.40138040e-06  2.38305033e-08 
 6.49381632e+02  2.37170546e-06  2.35363717e-08 
 6.68343918e+02  2.34289664e-06  2.32508708e-08 
 6.87859912e+02  2.31491820e-06  2.29736462e-08 
 7.07945784e+02  2.28773640e-06  2.27043633e-08 
 7.28618175e+02  2.26131934e-06  2.24427058e-08 
 7.49894209e+02  2.23563686e-06  2.21883749e-08 
 7.71791516e+02  2.21066042e-06  2.19410883e-08 
 7.94328235e+02  2.18636304e-06  2.17005788e-08 
 8.17523038e+02  2.16271917e-06  2.14665940e-08 
 8.41395142e+02  2.13970462e-06  2.12388950e-08 
 8.65964323e+02  2.11729648e-06  2.10172555e-08 
 8.91250938e+02  2.09547301e-06  2.08014613e-08 
 9.17275935e+02  2.07421361e-06  2.05913096e-08 
 9.44060876e+02  2.05349873e-06  2.03866079e-08 
 9.71627952e+02  2.03330977e-06  2.01871737e-08 
 1.00000000e+03  2.01362909e-06  1.99928337e-08 
 1.02920053e+03  1.99443988e-06  1.98034235e-08 
 1.05925373e+03  1.97572615e-06  1.96187867e-08 
 1.09018449e+03  1.95747265e-06  1.94387745e-08 
 1.12201845e+03  1.93966484e-06  1.92632453e-08 
 1.15478198e+03  1.92228885e-06  1.90920643e-08 
 1.18850223e+03  1.90533140e-06  1.89251029e-08 
 1.22320712e+03  1.88877979e-06  1.87622384e-08 
 1.25892541e+03  1.87262187e-06  1.86033537e-08 
 1.29568670e+03  1.85684598e-06  1.84483367e-08 
 1.33352143e+03  1.84144092e-06  1.82970803e-08 
 1.37246096e+03  1.82639593e-06  1.81494821e-08 
 1.41253754e+03  1.81170066e-06  1.80054435e-08 
 1.45378439e+03  1.79734511e-06  1.78648704e-08 
 1.49623566e+03  1.78331966e-06  1.77276722e-08 
 1.53992653e+03  1.76961500e-06  1.75937618e-08 
 1.58489319e+03  1.75622213e-06  1.74630556e-08 
 1.63117291e+03  1.74313232e-06  1.73354729e-08 
 1.67880402e+03  1.73033712e-06  1.72109360e-08 
 1.72782598e+03  1.71782829e-06  1.70893701e-08 
 1.77827941e+03  1.70559783e-06  1.69707028e-08 
 1.83020611e+03  1.69363796e-06  1.68548641e-08 
 1.88364909e+03  1.68194105e-06  1.67417866e-08 
 1.93865264e+03  1.67049967e-06  1.66314048e-08 
 1.99526231e+03  1.65930656e-06  1.65236552e-08 
 2.05352503e+03  1.64835457e-06  1.64184765e-08 
 2.11348904e+03  1.63763671e-06  1.63158090e-08 
 2.17520403e+03  1.62714608e-06  1.62155948e-08 
 2.23872114e+03  1.61687593e-06  1.61177778e-08 
 2.30409298e+03  1.60681957e-06  1.60223031e-08 
 2.37137371e+03  1.59697039e-06  1.59291177e-08 
 2.44061907e+03  1.58732189e-06  1.58381697e-08 
 2.51188643e+03  1.57786759e-06  1.57494087e-08 
 2.58523484e+03  1.56860110e-06  1.56627856e-08 
 2.66072506e+03  1.55951605e-06  1.55782522e-08 
 2.73841963e+03  1.55060610e-06  1.54957620e-08 
 2.81838293e+03  1.54186495e-06  1.54152692e-08 
 2.90068120e+03  1.53328632e-06  1.53367292e-08 
 2.98538262e+03  1.52486391e-06  1.52600985e-08 
 3.07255737e+03  1.51659144e-06  1.51853345e-08 
 3.16227766e+03  1.50846260e-06  1.51123956e-08 
 3.25461783e+03  1.50047109e-06  1.50412411e-08 
 3.34965439e+03  1.49261055e-06  1.49718311e-08 
 3.44746607e+03  1.48487460e-06  1.49041268e-08 
 3.54813389e+03  1.47725680e-06  1.48380901e-08 
 3.65174127e+03  1.46975067e-06  1.47736835e-08 
 3.75837404e+03  1.46234966e-06  1.47108706e-08 
 3.86812055e+03  1.45504715e-06  1.46496155e-08 
 3.98107171e+03  1.44783643e-06  1.45898834e-08 
 4.09732110e+03  1.44071072e-06  1.45316397e-08 
 4.21696503e+03  1.43366313e-06  1.44748510e-08 
 4.34010264e+03  1.42668666e-06  1.44194842e-08 
 4.46683592e+03  1.41977421e-06  1.43655072e-08 
 4.59726989e+03  1.41291853e-06  1.43128882e-08 
 4.73151259e+03  1.40611227e-06  1.42615964e-08 
 4.86967525e+03  1.39934792e-06  1.42116013e-08 
 5.01187234e+03  1.39261783e-06  1.41628733e-08 
 5.15822165e+03  1.38591419e-06  1.41153831e-08 
 5.30884444e+03  1.37922903e-06  1.40691023e-08 
 5.46386550e+03  1.37255419e-06  1.40240028e-08 
 5.62341325e+03  1.36588137e-06  1.39800573e-08 
 5.78761988e+03  1.35920203e-06  1.39372389e-08 
 5.95662144e+03  1.35250750e-06  1.38955214e-08 
 6.13055792e+03  1.34578886e-06  1.38548789e-08 
 6.30957344e+03  1.33903701e-06  1.38152863e-08 
 6.49381632e+03  1.33224266e-06  1.37767188e-08 
 6.68343918e+03  1.32539628e-06  1.37391523e-08 
 6.87859912e+03  1.31848814e-06  1.37025631e-08 
 7.07945784e+03  1.31150832e-06  1.36669280e-08 
 7.28618175e+03  1.30444665e-06  1.36322243e-08 
 7.49894209e+03  1.29729278e-06  1.35984298e-08 
 7.71791516e+03  1.29003616e-06  1.35655228e-08 
 7.94328235e+03  1.28266600e-06  1.35334821e-08 
 8.17523038e+03  1.27517138e-06  1.35022868e-08 
 8.41395142e+03  1.26754115e-06  1.34719166e-08 
 8.65964323e+03  1.25976401e-06  1.34423516e-08 
 8.91250938e+03  1.25182853e-06  1.34135724e-08 
 9.17275935e+03  1.24372311e-06  1.33855601e-08 
 9.44060876e+03  1.23543608e-06  1.33582960e-08 
 9.71627952e+03  1.22695566e-06  1.33317619e-08 
 1.00000000e+04  1.21827004e-06  1.33059403e-08 
 1.02920053e+04  1.20936736e-06  1.32808138e-08 
 1.05925373e+04  1.20023580e-06  1.32563654e-08 
 1.09018449e+04  1.19086360e-06  1.32325788e-08 
 1.12201845e+04  1.18123910e-06  1.32094378e-08 
 1.15478198e+04  1.17135079e-06  1.31869267e-08 
 1.18850223e+04  1.16118739e-06  1.31650303e-08 
 1.22320712e+04  1.15073788e-06  1.31437336e-08 
 1.25892541e+04  1.13999157e-06  1.31230222e-08 
 1.29568670e+04  1.12893819e-06  1.31028817e-08 
 1.33352143e+04  1.11756795e-06  1.30832985e-08 
 1.37246096e+04  1.10587159e-06  1.30642592e-08 
 1.41253754e+04  1.09384051e-06  1.30457506e-08 
 1.45378439e+04  1.08146681e-06  1.30277601e-08 
 1.49623566e+04  1.06874342e-06  1.30102754e-08 
 1.53992653e+04  1.05566413e-06  1.29932844e-08 
 1.58489319e+04  1.04222373e-06  1.29767756e-08 
 1.63117291e+04  1.02841808e-06  1.29607375e-08 
 1.67880402e+04  1.01424418e-06  1.29451594e-08 
 1.72782598e+04  9.99700298e-07  1.29300306e-08 
 1.77827941e+04  9.84786022e-07  1.29153408e-08 
 1.83020611e+04  9.69502349e-07  1.29010801e-08 
 1.88364909e+04  9.53851760e-07  1.28872389e-08 
 1.93865264e+04  9.37838292e-07  1.28738080e-08 
 1.99526231e+04  9.21467597e-07  1.28607784e-08 
