 frequency       gain_vv         gain_db         phase_deg      
 1.00000000e+00  6.79410545e+01  3.66426457e+01 -2.18527680e+00 
 1.02920053e+00  6.85108498e+01  3.67151871e+01 -2.21061776e+00 
 1.05925373e+00  6.90562671e+01  3.67840620e+01 -2.23537669e+00 
 1.09018449e+00  6.95779851e+01  3.68494370e+01 -2.25956024e+00 
 1.12201845e+00  7.00767009e+01  3.69114730e+01 -2.28317548e+00 
 1.15478198e+00  7.05531256e+01  3.69703252e+01 -2.30622992e+00 
 1.18850223e+00  7.10079796e+01  3.70261431e+01 -2.32873143e+00 
 1.22320712e+00  7.14419885e+01  3.70790707e+01 -2.35068820e+00 
 1.25892541e+00  7.18558795e+01  3.71292462e+01 -2.37210871e+00 
 1.29568670e+00  7.22503782e+01  3.71768025e+01 -2.39300168e+00 
 1.33352143e+00  7.26262056e+01  3.72218671e+01 -2.41337604e+00 
 1.37246096e+00  7.29840752e+01  3.72645622e+01 -2.43324089e+00 
 1.41253754e+00  7.33246911e+01  3.73050048e+01 -2.45260549e+00 
 1.45378439e+00  7.36487461e+01  3.73433071e+01 -2.47147919e+00 
 1.49623566e+00  7.39569194e+01  3.73795763e+01 -2.48987143e+00 
 1.53992653e+00  7.42498759e+01  3.74139146e+01 -2.50779173e+00 
 1.58489319e+00  7.45282642e+01  3.74464201e+01 -2.52524963e+00 
 1.63117291e+00  7.47927163e+01  3.74771861e+01 -2.54225469e+00 
 1.67880402e+00  7.50438466e+01  3.75063017e+01 -2.55881645e+00 
 1.72782598e+00  7.52822511e+01  3.75338519e+01 -2.57494446e+00 
 1.77827941e+00  7.55085069e+01  3.75599177e+01 -2.59064819e+00 
 1.83020611e+00  7.57231723e+01  3.75845760e+01 -2.60593709e+00 
 1.88364909e+00  7.59267865e+01  3.76079004e+01 -2.62082051e+00 
 1.93865264e+00  7.61198690e+01  3.76299606e+01 -2.63530775e+00 
 1.99526231e+00  7.63029206e+01  3.76508232e+01 -2.64940800e+00 
 2.05352503e+00  7.64764226e+01  3.76705513e+01 -2.66313035e+00 
 2.11348904e+00  7.66408375e+01  3.76892048e+01 -2.67648378e+00 
 2.17520403e+00  7.67966095e+01  3.77068409e+01 -2.68947714e+00 
 2.23872114e+00  7.69441641e+01  3.77235137e+01 -2.70211918e+00 
 2.30409298e+00  7.70839091e+01  3.77392746e+01 -2.71441850e+00 
 2.37137371e+00  7.72162348e+01  3.77541724e+01 -2.72638356e+00 
 2.44061907e+00  7.73415144e+01  3.77682534e+01 -2.73802270e+00 
 2.51188643e+00  7.74601047e+01  3.77815616e+01 -2.74934410e+00 
 2.58523484e+00  7.75723463e+01  3.77941385e+01 -2.76035580e+00 
 2.66072506e+00  7.76785641e+01  3.78060238e+01 -2.77106567e+00 
 2.73841963e+00  7.77790682e+01  3.78172547e+01 -2.78148146e+00 
 2.81838293e+00  7.78741541e+01  3.78278668e+01 -2.79161076e+00 
 2.90068120e+00  7.79641032e+01  3.78378938e+01 -2.80146098e+00 
 2.98538262e+00  7.80491835e+01  3.78473673e+01 -2.81103941e+00 
 3.07255737e+00  7.81296500e+01  3.78563176e+01 -2.82035316e+00 
 3.16227766e+00  7.82057454e+01  3.78647732e+01 -2.82940921e+00 
 3.25461783e+00  7.82777003e+01  3.78727612e+01 -2.83821437e+00 
 3.34965439e+00  7.83457338e+01  3.78803071e+01 -2.84677530e+00 
 3.44746607e+00  7.84100543e+01  3.78874351e+01 -2.85509851e+00 
 3.54813389e+00  7.84708596e+01  3.78941682e+01 -2.86319037e+00 
 3.65174127e+00  7.85283374e+01  3.79005281e+01 -2.87105709e+00 
 3.75837404e+00  7.85826659e+01  3.79065352e+01 -2.87870473e+00 
 3.86812055e+00  7.86340143e+01  3.79122089e+01 -2.88613922e+00 
 3.98107171e+00  7.86825428e+01  3.79175677e+01 -2.89336634e+00 
 4.09732110e+00  7.87284037e+01  3.79226289e+01 -2.90039172e+00 
 4.21696503e+00  7.87717410e+01  3.79274089e+01 -2.90722086e+00 
 4.34010264e+00  7.88126915e+01  3.79319232e+01 -2.91385913e+00 
 4.46683592e+00  7.88513847e+01  3.79361865e+01 -2.92031175e+00 
 4.59726989e+00  7.88879431e+01  3.79402127e+01 -2.92658383e+00 
 4.73151259e+00  7.89224831e+01  3.79440148e+01 -2.93268032e+00 
 4.86967525e+00  7.89551146e+01  3.79476054e+01 -2.93860608e+00 
 5.01187234e+00  7.89859419e+01  3.79509960e+01 -2.94436581e+00 
 5.15822165e+00  7.90150636e+01  3.79541979e+01 -2.94996412e+00 
 5.30884444e+00  7.90425730e+01  3.79572214e+01 -2.95540548e+00 
 5.46386550e+00  7.90685587e+01  3.79600764e+01 -2.96069424e+00 
 5.62341325e+00  7.90931041e+01  3.79627724e+01 -2.96583466e+00 
 5.78761988e+00  7.91162883e+01  3.79653181e+01 -2.97083087e+00 
 5.95662144e+00  7.91381863e+01  3.79677219e+01 -2.97568688e+00 
 6.13055792e+00  7.91588689e+01  3.79699916e+01 -2.98040663e+00 
 6.30957344e+00  7.91784029e+01  3.79721347e+01 -2.98499391e+00 
 6.49381632e+00  7.91968518e+01  3.79741584e+01 -2.98945245e+00 
 6.68343918e+00  7.92142754e+01  3.79760691e+01 -2.99378585e+00 
 6.87859912e+00  7.92307303e+01  3.79778732e+01 -2.99799763e+00 
 7.07945784e+00  7.92462700e+01  3.79795766e+01 -3.00209121e+00 
 7.28618175e+00  7.92609453e+01  3.79811850e+01 -3.00606992e+00 
 7.49894209e+00  7.92748039e+01  3.79827035e+01 -3.00993700e+00 
 7.71791516e+00  7.92878910e+01  3.79841373e+01 -3.01369559e+00 
 7.94328235e+00  7.93002494e+01  3.79854911e+01 -3.01734877e+00 
 8.17523038e+00  7.93119194e+01  3.79867692e+01 -3.02089951e+00 
 8.41395142e+00  7.93229393e+01  3.79879760e+01 -3.02435072e+00 
 8.65964323e+00  7.93333452e+01  3.79891153e+01 -3.02770521e+00 
 8.91250938e+00  7.93431711e+01  3.79901911e+01 -3.03096573e+00 
 9.17275935e+00  7.93524492e+01  3.79912067e+01 -3.03413496e+00 
 9.44060876e+00  7.93612099e+01  3.79921656e+01 -3.03721548e+00 
 9.71627952e+00  7.93694821e+01  3.79930709e+01 -3.04020982e+00 
 1.00000000e+01  7.93772928e+01  3.79939257e+01 -3.04312045e+00 
 1.02920053e+01  7.93846678e+01  3.79947326e+01 -3.04594974e+00 
 1.05925373e+01  7.93916313e+01  3.79954945e+01 -3.04870002e+00 
 1.09018449e+01  7.93982061e+01  3.79962138e+01 -3.05137355e+00 
 1.12201845e+01  7.94044140e+01  3.79968929e+01 -3.05397253e+00 
 1.15478198e+01  7.94102753e+01  3.79975340e+01 -3.05649910e+00 
 1.18850223e+01  7.94158094e+01  3.79981393e+01 -3.05895533e+00 
 1.22320712e+01  7.94210344e+01  3.79987108e+01 -3.06134325e+00 
 1.25892541e+01  7.94259677e+01  3.79992503e+01 -3.06366481e+00 
 1.29568670e+01  7.94306254e+01  3.79997596e+01 -3.06592195e+00 
 1.33352143e+01  7.94350229e+01  3.80002405e+01 -3.06811650e+00 
 1.37246096e+01  7.94391747e+01  3.80006945e+01 -3.07025029e+00 
 1.41253754e+01  7.94430946e+01  3.80011231e+01 -3.07232507e+00 
 1.45378439e+01  7.94467954e+01  3.80015277e+01 -3.07434255e+00 
 1.49623566e+01  7.94502893e+01  3.80019097e+01 -3.07630439e+00 
 1.53992653e+01  7.94535880e+01  3.80022703e+01 -3.07821222e+00 
 1.58489319e+01  7.94567023e+01  3.80026107e+01 -3.08006761e+00 
 1.63117291e+01  7.94596424e+01  3.80029321e+01 -3.08187209e+00 
 1.67880402e+01  7.94624182e+01  3.80032355e+01 -3.08362715e+00 
 1.72782598e+01  7.94650387e+01  3.80035220e+01 -3.08533425e+00 
 1.77827941e+01  7.94675127e+01  3.80037924e+01 -3.08699478e+00 
 1.83020611e+01  7.94698482e+01  3.80040477e+01 -3.08861012e+00 
 1.88364909e+01  7.94720531e+01  3.80042887e+01 -3.09018161e+00 
 1.93865264e+01  7.94741346e+01  3.80045162e+01 -3.09171054e+00 
 1.99526231e+01  7.94760996e+01  3.80047309e+01 -3.09319818e+00 
 2.05352503e+01  7.94779547e+01  3.80049336e+01 -3.09464576e+00 
 2.11348904e+01  7.94797058e+01  3.80051250e+01 -3.09605447e+00 
 2.17520403e+01  7.94813589e+01  3.80053057e+01 -3.09742548e+00 
 2.23872114e+01  7.94829194e+01  3.80054762e+01 -3.09875992e+00 
 2.30409298e+01  7.94843924e+01  3.80056372e+01 -3.10005890e+00 
 2.37137371e+01  7.94857829e+01  3.80057891e+01 -3.10132349e+00 
 2.44061907e+01  7.94870954e+01  3.80059325e+01 -3.10255474e+00 
 2.51188643e+01  7.94883343e+01  3.80060679e+01 -3.10375366e+00 
 2.58523484e+01  7.94895036e+01  3.80061957e+01 -3.10492125e+00 
 2.66072506e+01  7.94906074e+01  3.80063163e+01 -3.10605848e+00 
 2.73841963e+01  7.94916491e+01  3.80064301e+01 -3.10716627e+00 
 2.81838293e+01  7.94926323e+01  3.80065376e+01 -3.10824556e+00 
 2.90068120e+01  7.94935602e+01  3.80066390e+01 -3.10929723e+00 
 2.98538262e+01  7.94944359e+01  3.80067346e+01 -3.11032216e+00 
 3.07255737e+01  7.94952622e+01  3.80068249e+01 -3.11132119e+00 
 3.16227766e+01  7.94960420e+01  3.80069101e+01 -3.11229514e+00 
 3.25461783e+01  7.94967778e+01  3.80069905e+01 -3.11324484e+00 
 3.34965439e+01  7.94974720e+01  3.80070664e+01 -3.11417105e+00 
 3.44746607e+01  7.94981270e+01  3.80071379e+01 -3.11507455e+00 
 3.54813389e+01  7.94987449e+01  3.80072054e+01 -3.11595609e+00 
 3.65174127e+01  7.94993277e+01  3.80072691e+01 -3.11681640e+00 
 3.75837404e+01  7.94998774e+01  3.80073292e+01 -3.11765618e+00 
 3.86812055e+01  7.95003958e+01  3.80073858e+01 -3.11847614e+00 
 3.98107171e+01  7.95008847e+01  3.80074392e+01 -3.11927695e+00 
 4.09732110e+01  7.95013456e+01  3.80074896e+01 -3.12005928e+00 
 4.21696503e+01  7.95017800e+01  3.80075370e+01 -3.12082377e+00 
 4.34010264e+01  7.95021895e+01  3.80075818e+01 -3.12157105e+00 
 4.46683592e+01  7.95025753e+01  3.80076239e+01 -3.12230176e+00 
 4.59726989e+01  7.95029388e+01  3.80076636e+01 -3.12301648e+00 
 4.73151259e+01  7.95032811e+01  3.80077010e+01 -3.12371582e+00 
 4.86967525e+01  7.95036034e+01  3.80077363e+01 -3.12440034e+00 
 5.01187234e+01  7.95039068e+01  3.80077694e+01 -3.12507063e+00 
 5.15822165e+01  7.95041922e+01  3.80078006e+01 -3.12572723e+00 
 5.30884444e+01  7.95044606e+01  3.80078299e+01 -3.12637069e+00 
 5.46386550e+01  7.95047129e+01  3.80078575e+01 -3.12700154e+00 
 5.62341325e+01  7.95049499e+01  3.80078834e+01 -3.12762030e+00 
 5.78761988e+01  7.95051724e+01  3.80079077e+01 -3.12822749e+00 
 5.95662144e+01  7.95053812e+01  3.80079305e+01 -3.12882360e+00 
 6.13055792e+01  7.95055770e+01  3.80079519e+01 -3.12940914e+00 
 6.30957344e+01  7.95057603e+01  3.80079719e+01 -3.12998458e+00 
 6.49381632e+01  7.95059318e+01  3.80079906e+01 -3.13055041e+00 
 6.68343918e+01  7.95060921e+01  3.80080081e+01 -3.13110709e+00 
 6.87859912e+01  7.95062416e+01  3.80080245e+01 -3.13165509e+00 
 7.07945784e+01  7.95063810e+01  3.80080397e+01 -3.13219485e+00 
 7.28618175e+01  7.95065106e+01  3.80080539e+01 -3.13272683e+00 
 7.49894209e+01  7.95066309e+01  3.80080670e+01 -3.13325146e+00 
 7.71791516e+01  7.95067423e+01  3.80080792e+01 -3.13376919e+00 
 7.94328235e+01  7.95068452e+01  3.80080904e+01 -3.13428043e+00 
 8.17523038e+01  7.95069398e+01  3.80081008e+01 -3.13478562e+00 
 8.41395142e+01  7.95070265e+01  3.80081102e+01 -3.13528516e+00 
 8.65964323e+01  7.95071057e+01  3.80081189e+01 -3.13577948e+00 
 8.91250938e+01  7.95071774e+01  3.80081267e+01 -3.13626899e+00 
 9.17275935e+01  7.95072421e+01  3.80081338e+01 -3.13675408e+00 
 9.44060876e+01  7.95072999e+01  3.80081401e+01 -3.13723517e+00 
 9.71627952e+01  7.95073510e+01  3.80081457e+01 -3.13771264e+00 
 1.00000000e+02  7.95073955e+01  3.80081505e+01 -3.13818691e+00 
 1.02920053e+02  7.95074337e+01  3.80081547e+01 -3.13865835e+00 
 1.05925373e+02  7.95074656e+01  3.80081582e+01 -3.13912736e+00 
 1.09018449e+02  7.95074914e+01  3.80081610e+01 -3.13959432e+00 
 1.12201845e+02  7.95075111e+01  3.80081632e+01 -3.14005964e+00 
 1.15478198e+02  7.95075248e+01  3.80081647e+01 -3.14052368e+00 
 1.18850223e+02  7.95075325e+01  3.80081655e+01 -3.14098683e+00 
 1.22320712e+02  7.95075343e+01  3.80081657e+01 -3.14144949e+00 
 1.25892541e+02  7.95075302e+01  3.80081653e+01  3.14127328e+00 
 1.29568670e+02  7.95075202e+01  3.80081642e+01  3.14081048e+00 
 1.33352143e+02  7.95075041e+01  3.80081624e+01  3.14034703e+00 
 1.37246096e+02  7.95074821e+01  3.80081600e+01  3.13988255e+00 
 1.41253754e+02  7.95074540e+01  3.80081569e+01  3.13941666e+00 
 1.45378439e+02  7.95074196e+01  3.80081532e+01  3.13894896e+00 
 1.49623566e+02  7.95073790e+01  3.80081487e+01  3.13847907e+00 
 1.53992653e+02  7.95073319e+01  3.80081436e+01  3.13800660e+00 
 1.58489319e+02  7.95072782e+01  3.80081377e+01  3.13753116e+00 
 1.63117291e+02  7.95072178e+01  3.80081311e+01  3.13705236e+00 
 1.67880402e+02  7.95071504e+01  3.80081238e+01  3.13656979e+00 
 1.72782598e+02  7.95070758e+01  3.80081156e+01  3.13608306e+00 
 1.77827941e+02  7.95069937e+01  3.80081066e+01  3.13559177e+00 
 1.83020611e+02  7.95069040e+01  3.80080968e+01  3.13509551e+00 
 1.88364909e+02  7.95068062e+01  3.80080862e+01  3.13459387e+00 
 1.93865264e+02  7.95067001e+01  3.80080746e+01  3.13408643e+00 
 1.99526231e+02  7.95065853e+01  3.80080620e+01  3.13357277e+00 
 2.05352503e+02  7.95064614e+01  3.80080485e+01  3.13305246e+00 
 2.11348904e+02  7.95063280e+01  3.80080339e+01  3.13252509e+00 
 2.17520403e+02  7.95061847e+01  3.80080183e+01  3.13199020e+00 
 2.23872114e+02  7.95060311e+01  3.80080015e+01  3.13144735e+00 
 2.30409298e+02  7.95058665e+01  3.80079835e+01  3.13089610e+00 
 2.37137371e+02  7.95056905e+01  3.80079643e+01  3.13033599e+00 
 2.44061907e+02  7.95055024e+01  3.80079437e+01  3.12976656e+00 
 2.51188643e+02  7.95053017e+01  3.80079218e+01  3.12918733e+00 
 2.58523484e+02  7.95050876e+01  3.80078984e+01  3.12859782e+00 
 2.66072506e+02  7.95048595e+01  3.80078735e+01  3.12799755e+00 
 2.73841963e+02  7.95046167e+01  3.80078470e+01  3.12738602e+00 
 2.81838293e+02  7.95043582e+01  3.80078187e+01  3.12676271e+00 
 2.90068120e+02  7.95040833e+01  3.80077887e+01  3.12612713e+00 
 2.98538262e+02  7.95037911e+01  3.80077568e+01  3.12547873e+00 
 3.07255737e+02  7.95034805e+01  3.80077228e+01  3.12481699e+00 
 3.16227766e+02  7.95031505e+01  3.80076868e+01  3.12414135e+00 
 3.25461783e+02  7.95028001e+01  3.80076485e+01  3.12345125e+00 
 3.34965439e+02  7.95024281e+01  3.80076079e+01  3.12274613e+00 
 3.44746607e+02  7.95020332e+01  3.80075647e+01  3.12202540e+00 
 3.54813389e+02  7.95016142e+01  3.80075189e+01  3.12128845e+00 
 3.65174127e+02  7.95011697e+01  3.80074704e+01  3.12053470e+00 
 3.75837404e+02  7.95006981e+01  3.80074188e+01  3.11976350e+00 
 3.86812055e+02  7.95001980e+01  3.80073642e+01  3.11897421e+00 
 3.98107171e+02  7.94996676e+01  3.80073063e+01  3.11816620e+00 
 4.09732110e+02  7.94991053e+01  3.80072448e+01  3.11733878e+00 
 4.21696503e+02  7.94985091e+01  3.80071797e+01  3.11649127e+00 
 4.34010264e+02  7.94978771e+01  3.80071106e+01  3.11562298e+00 
 4.46683592e+02  7.94972071e+01  3.80070374e+01  3.11473317e+00 
 4.59726989e+02  7.94964970e+01  3.80069598e+01  3.11382112e+00 
 4.73151259e+02  7.94957444e+01  3.80068776e+01  3.11288607e+00 
 4.86967525e+02  7.94949469e+01  3.80067905e+01  3.11192725e+00 
 5.01187234e+02  7.94941017e+01  3.80066981e+01  3.11094386e+00 
 5.15822165e+02  7.94932061e+01  3.80066003e+01  3.10993509e+00 
 5.30884444e+02  7.94922571e+01  3.80064966e+01  3.10890010e+00 
 5.46386550e+02  7.94912516e+01  3.80063867e+01  3.10783804e+00 
 5.62341325e+02  7.94901862e+01  3.80062703e+01  3.10674803e+00 
 5.78761988e+02  7.94890575e+01  3.80061470e+01  3.10562916e+00 
 5.95662144e+02  7.94878616e+01  3.80060163e+01  3.10448052e+00 
 6.13055792e+02  7.94865947e+01  3.80058778e+01  3.10330115e+00 
 6.30957344e+02  7.94852525e+01  3.80057312e+01  3.10209007e+00 
 6.49381632e+02  7.94838305e+01  3.80055758e+01  3.10084629e+00 
 6.68343918e+02  7.94823242e+01  3.80054112e+01  3.09956877e+00 
 6.87859912e+02  7.94807284e+01  3.80052368e+01  3.09825646e+00 
 7.07945784e+02  7.94790380e+01  3.80050520e+01  3.09690828e+00 
 7.28618175e+02  7.94772473e+01  3.80048563e+01  3.09552310e+00 
 7.49894209e+02  7.94753504e+01  3.80046490e+01  3.09409979e+00 
 7.71791516e+02  7.94733411e+01  3.80044294e+01  3.09263717e+00 
 7.94328235e+02  7.94712126e+01  3.80041968e+01  3.09113403e+00 
 8.17523038e+02  7.94689580e+01  3.80039504e+01  3.08958913e+00 
 8.41395142e+02  7.94665698e+01  3.80036893e+01  3.08800119e+00 
 8.65964323e+02  7.94640401e+01  3.80034128e+01  3.08636890e+00 
 8.91250938e+02  7.94613605e+01  3.80031199e+01  3.08469091e+00 
 9.17275935e+02  7.94585223e+01  3.80028097e+01  3.08296584e+00 
 9.44060876e+02  7.94555160e+01  3.80024810e+01  3.08119226e+00 
 9.71627952e+02  7.94523316e+01  3.80021329e+01  3.07936872e+00 
 1.00000000e+03  7.94489588e+01  3.80017642e+01  3.07749370e+00 
 1.02920053e+03  7.94453863e+01  3.80013736e+01  3.07556566e+00 
 1.05925373e+03  7.94416023e+01  3.80009599e+01  3.07358301e+00 
 1.09018449e+03  7.94375945e+01  3.80005217e+01  3.07154411e+00 
 1.12201845e+03  7.94333495e+01  3.80000575e+01  3.06944729e+00 
 1.15478198e+03  7.94288533e+01  3.79995659e+01  3.06729082e+00 
 1.18850223e+03  7.94240912e+01  3.79990451e+01  3.06507292e+00 
 1.22320712e+03  7.94190474e+01  3.79984935e+01  3.06279176e+00 
 1.25892541e+03  7.94137054e+01  3.79979092e+01  3.06044548e+00 
 1.29568670e+03  7.94080475e+01  3.79972904e+01  3.05803213e+00 
 1.33352143e+03  7.94020552e+01  3.79966349e+01  3.05554974e+00 
 1.37246096e+03  7.93957086e+01  3.79959406e+01  3.05299626e+00 
 1.41253754e+03  7.93889870e+01  3.79952052e+01  3.05036959e+00 
 1.45378439e+03  7.93818682e+01  3.79944263e+01  3.04766759e+00 
 1.49623566e+03  7.93743288e+01  3.79936013e+01  3.04488803e+00 
 1.53992653e+03  7.93663442e+01  3.79927275e+01  3.04202863e+00 
 1.58489319e+03  7.93578880e+01  3.79918020e+01  3.03908706e+00 
 1.63117291e+03  7.93489326e+01  3.79908218e+01  3.03606089e+00 
 1.67880402e+03  7.93394486e+01  3.79897836e+01  3.03294766e+00 
 1.72782598e+03  7.93294049e+01  3.79886839e+01  3.02974481e+00 
 1.77827941e+03  7.93187686e+01  3.79875193e+01  3.02644973e+00 
 1.83020611e+03  7.93075050e+01  3.79862857e+01  3.02305972e+00 
 1.88364909e+03  7.92955772e+01  3.79849793e+01  3.01957203e+00 
 1.93865264e+03  7.92829463e+01  3.79835956e+01  3.01598381e+00 
 1.99526231e+03  7.92695710e+01  3.79821302e+01  3.01229213e+00 
 2.05352503e+03  7.92554078e+01  3.79805781e+01  3.00849399e+00 
 2.11348904e+03  7.92404106e+01  3.79789343e+01  3.00458631e+00 
 2.17520403e+03  7.92245304e+01  3.79771935e+01  3.00056591e+00 
 2.23872114e+03  7.92077159e+01  3.79753498e+01  2.99642953e+00 
 2.30409298e+03  7.91899122e+01  3.79733972e+01  2.99217383e+00 
 2.37137371e+03  7.91710618e+01  3.79713294e+01  2.98779535e+00 
 2.44061907e+03  7.91511036e+01  3.79691395e+01  2.98329057e+00 
 2.51188643e+03  7.91299730e+01  3.79668204e+01  2.97865586e+00 
 2.58523484e+03  7.91076019e+01  3.79643644e+01  2.97388747e+00 
 2.66072506e+03  7.90839182e+01  3.79617636e+01  2.96898159e+00 
 2.73841963e+03  7.90588455e+01  3.79590094e+01  2.96393427e+00 
 2.81838293e+03  7.90323035e+01  3.79560928e+01  2.95874147e+00 
 2.90068120e+03  7.90042069e+01  3.79530044e+01  2.95339905e+00 
 2.98538262e+03  7.89744659e+01  3.79497340e+01  2.94790274e+00 
 3.07255737e+03  7.89429855e+01  3.79462709e+01  2.94224818e+00 
 3.16227766e+03  7.89096654e+01  3.79426040e+01  2.93643087e+00 
 3.25461783e+03  7.88743997e+01  3.79387213e+01  2.93044621e+00 
 3.34965439e+03  7.88370765e+01  3.79346102e+01  2.92428948e+00 
 3.44746607e+03  7.87975778e+01  3.79302574e+01  2.91795583e+00 
 3.54813389e+03  7.87557791e+01  3.79256486e+01  2.91144030e+00 
 3.65174127e+03  7.87115489e+01  3.79207692e+01  2.90473778e+00 
 3.75837404e+03  7.86647487e+01  3.79156032e+01  2.89784306e+00 
 3.86812055e+03  7.86152321e+01  3.79101340e+01  2.89075078e+00 
 3.98107171e+03  7.85628451e+01  3.79043441e+01  2.88345545e+00 
 4.09732110e+03  7.85074252e+01  3.78982147e+01  2.87595145e+00 
 4.21696503e+03  7.84488012e+01  3.78917262e+01  2.86823304e+00 
 4.34010264e+03  7.83867928e+01  3.78848579e+01  2.86029431e+00 
 4.46683592e+03  7.83212101e+01  3.78775878e+01  2.85212923e+00 
 4.59726989e+03  7.82518533e+01  3.78698926e+01  2.84373164e+00 
 4.73151259e+03  7.81785121e+01  3.78617480e+01  2.83509523e+00 
 4.86967525e+03  7.81009653e+01  3.78531280e+01  2.82621353e+00 
 5.01187234e+03  7.80189803e+01  3.78440054e+01  2.81707997e+00 
 5.15822165e+03  7.79323127e+01  3.78343513e+01  2.80768779e+00 
 5.30884444e+03  7.78407059e+01  3.78241353e+01  2.79803012e+00 
 5.46386550e+03  7.77438903e+01  3.78133254e+01  2.78809995e+00 
 5.62341325e+03  7.76415832e+01  3.78018877e+01  2.77789010e+00 
 5.78761988e+03  7.75334881e+01  3.77897865e+01  2.76739327e+00 
 5.95662144e+03  7.74192942e+01  3.77769842e+01  2.75660204e+00 
 6.13055792e+03  7.72986760e+01  3.77634411e+01  2.74550881e+00 
 6.30957344e+03  7.71712930e+01  3.77491155e+01  2.73410588e+00 
 6.49381632e+03  7.70367887e+01  3.77339634e+01  2.72238541e+00 
