 frequency       gain_vv         gain_db         phase_deg      
 1.00000000e-03  2.48324816e-13 -2.52099598e+02  3.14066272e+00 
 1.02920053e-03  2.78625024e-13 -2.51099598e+02  3.14063557e+00 
 1.05925373e-03  3.12622416e-13 -2.50099598e+02  3.14060762e+00 
 1.09018449e-03  3.50768118e-13 -2.49099598e+02  3.14057886e+00 
 1.12201845e-03  3.93568298e-13 -2.48099598e+02  3.14054926e+00 
 1.15478198e-03  4.41590890e-13 -2.47099598e+02  3.14051879e+00 
 1.18850223e-03  4.95473123e-13 -2.46099598e+02  3.14048743e+00 
 1.22320712e-03  5.55929982e-13 -2.45099598e+02  3.14045516e+00 
 1.25892541e-03  6.23763693e-13 -2.44099598e+02  3.14042194e+00 
 1.29568670e-03  6.99874367e-13 -2.43099598e+02  3.14038776e+00 
 1.33352143e-03  7.85271947e-13 -2.42099598e+02  3.14035257e+00 
 1.37246096e-03  8.81089606e-13 -2.41099598e+02  3.14031636e+00 
 1.41253754e-03  9.88598785e-13 -2.40099599e+02  3.14027909e+00 
 1.45378439e-03  1.10922607e-12 -2.39099599e+02  3.14024074e+00 
 1.49623566e-03  1.24457210e-12 -2.38099599e+02  3.14020126e+00 
 1.53992653e-03  1.39643284e-12 -2.37099599e+02  3.14016063e+00 
 1.58489319e-03  1.56682339e-12 -2.36099599e+02  3.14011882e+00 
 1.63117291e-03  1.75800473e-12 -2.35099599e+02  3.14007578e+00 
 1.67880402e-03  1.97251371e-12 -2.34099599e+02  3.14003149e+00 
 1.72782598e-03  2.21319675e-12 -2.33099600e+02  3.13998590e+00 
 1.77827941e-03  2.48324754e-12 -2.32099600e+02  3.13993898e+00 
 1.83020611e-03  2.78624951e-12 -2.31099600e+02  3.13989069e+00 
 1.88364909e-03  3.12622330e-12 -2.30099600e+02  3.13984099e+00 
 1.93865264e-03  3.50768015e-12 -2.29099600e+02  3.13978984e+00 
 1.99526231e-03  3.93568176e-12 -2.28099601e+02  3.13973720e+00 
 2.05352503e-03  4.41590744e-12 -2.27099601e+02  3.13968302e+00 
 2.11348904e-03  4.95472950e-12 -2.26099601e+02  3.13962726e+00 
 2.17520403e-03  5.55929777e-12 -2.25099601e+02  3.13956987e+00 
 2.23872114e-03  6.23763449e-12 -2.24099602e+02  3.13951080e+00 
 2.30409298e-03  6.99874077e-12 -2.23099602e+02  3.13945001e+00 
 2.37137371e-03  7.85271602e-12 -2.22099602e+02  3.13938744e+00 
 2.44061907e-03  8.81089196e-12 -2.21099602e+02  3.13932305e+00 
 2.51188643e-03  9.88598297e-12 -2.20099603e+02  3.13925678e+00 
 2.58523484e-03  1.10922549e-11 -2.19099603e+02  3.13918857e+00 
 2.66072506e-03  1.24457141e-11 -2.18099604e+02  3.13911837e+00 
 2.73841963e-03  1.39643202e-11 -2.17099604e+02  3.13904612e+00 
 2.81838293e-03  1.56682242e-11 -2.16099604e+02  3.13897176e+00 
 2.90068120e-03  1.75800357e-11 -2.15099605e+02  3.13889523e+00 
 2.98538262e-03  1.97251234e-11 -2.14099605e+02  3.13881646e+00 
 3.07255737e-03  2.21319511e-11 -2.13099606e+02  3.13873539e+00 
 3.16227766e-03  2.48324560e-11 -2.12099606e+02  3.13865196e+00 
 3.25461783e-03  2.78624720e-11 -2.11099607e+02  3.13856609e+00 
 3.34965439e-03  3.12622056e-11 -2.10099608e+02  3.13847771e+00 
 3.44746607e-03  3.50767689e-11 -2.09099608e+02  3.13838676e+00 
 3.54813389e-03  3.93567789e-11 -2.08099609e+02  3.13829314e+00 
 3.65174127e-03  4.41590284e-11 -2.07099610e+02  3.13819679e+00 
 3.75837404e-03  4.95472403e-11 -2.06099611e+02  3.13809763e+00 
 3.86812055e-03  5.55929127e-11 -2.05099611e+02  3.13799558e+00 
 3.98107171e-03  6.23762677e-11 -2.04099612e+02  3.13789054e+00 
 4.09732110e-03  6.99873159e-11 -2.03099613e+02  3.13778244e+00 
 4.21696503e-03  7.85270511e-11 -2.02099614e+02  3.13767118e+00 
 4.34010264e-03  8.81087899e-11 -2.01099615e+02  3.13755667e+00 
 4.46683592e-03  9.88596757e-11 -2.00099616e+02  3.13743882e+00 
 4.59726989e-03  1.10922365e-10 -1.99099618e+02  3.13731752e+00 
 4.73151259e-03  1.24456923e-10 -1.98099619e+02  3.13719269e+00 
 4.86967525e-03  1.39642943e-10 -1.97099620e+02  3.13706420e+00 
 5.01187234e-03  1.56681934e-10 -1.96099622e+02  3.13693197e+00 
 5.15822165e-03  1.75799992e-10 -1.95099623e+02  3.13679588e+00 
 5.30884444e-03  1.97250800e-10 -1.94099625e+02  3.13665581e+00 
 5.46386550e-03  2.21318995e-10 -1.93099626e+02  3.13651165e+00 
 5.62341325e-03  2.48323947e-10 -1.92099628e+02  3.13636328e+00 
 5.78761988e-03  2.78623991e-10 -1.91099630e+02  3.13621058e+00 
 5.95662144e-03  3.12621189e-10 -1.90099632e+02  3.13605342e+00 
 6.13055792e-03  3.50766659e-10 -1.89099634e+02  3.13589167e+00 
 6.30957344e-03  3.93566565e-10 -1.88099636e+02  3.13572520e+00 
 6.49381632e-03  4.41588829e-10 -1.87099638e+02  3.13555387e+00 
 6.68343918e-03  4.95470674e-10 -1.86099641e+02  3.13537754e+00 
 6.87859912e-03  5.55927072e-10 -1.85099644e+02  3.13519605e+00 
 7.07945784e-03  6.23760234e-10 -1.84099646e+02  3.13500927e+00 
 7.28618175e-03  6.99870257e-10 -1.83099649e+02  3.13481703e+00 
 7.49894209e-03  7.85267061e-10 -1.82099652e+02  3.13461918e+00 
 7.71791516e-03  8.81083799e-10 -1.81099656e+02  3.13441555e+00 
 7.94328235e-03  9.88591884e-10 -1.80099659e+02  3.13420598e+00 
 8.17523038e-03  1.10921786e-09 -1.79099663e+02  3.13399028e+00 
 8.41395142e-03  1.24456235e-09 -1.78099667e+02  3.13376829e+00 
 8.65964323e-03  1.39642125e-09 -1.77099671e+02  3.13353981e+00 
 8.91250938e-03  1.56680962e-09 -1.76099675e+02  3.13330467e+00 
 9.17275935e-03  1.75798836e-09 -1.75099680e+02  3.13306265e+00 
 9.44060876e-03  1.97249426e-09 -1.74099685e+02  3.13281357e+00 
 9.71627952e-03  2.21317363e-09 -1.73099690e+02  3.13255722e+00 
 1.00000000e-02  2.48322007e-09 -1.72099696e+02  3.13229338e+00 
 1.02920053e-02  2.78621686e-09 -1.71099702e+02  3.13202184e+00 
 1.05925373e-02  3.12618449e-09 -1.70099708e+02  3.13174237e+00 
 1.09018449e-02  3.50763402e-09 -1.69099715e+02  3.13145474e+00 
 1.12201845e-02  3.93562694e-09 -1.68099722e+02  3.13115871e+00 
 1.15478198e-02  4.41584229e-09 -1.67099729e+02  3.13085403e+00 
 1.18850223e-02  4.95465207e-09 -1.66099737e+02  3.13054046e+00 
 1.22320712e-02  5.55920574e-09 -1.65099745e+02  3.13021773e+00 
 1.25892541e-02  6.23752511e-09 -1.64099754e+02  3.12988558e+00 
 1.29568670e-02  6.99861078e-09 -1.63099763e+02  3.12954373e+00 
 1.33352143e-02  7.85256152e-09 -1.62099773e+02  3.12919190e+00 
 1.37246096e-02  8.81070833e-09 -1.61099784e+02  3.12882979e+00 
 1.41253754e-02  9.88576474e-09 -1.60099795e+02  3.12845711e+00 
 1.45378439e-02  1.10919955e-08 -1.59099806e+02  3.12807355e+00 
 1.49623566e-02  1.24454058e-08 -1.58099819e+02  3.12767879e+00 
 1.53992653e-02  1.39639538e-08 -1.57099832e+02  3.12727250e+00 
 1.58489319e-02  1.56677888e-08 -1.56099846e+02  3.12685435e+00 
 1.63117291e-02  1.75795182e-08 -1.55099861e+02  3.12642399e+00 
 1.67880402e-02  1.97245083e-08 -1.54099876e+02  3.12598106e+00 
 1.72782598e-02  2.21312201e-08 -1.53099893e+02  3.12552520e+00 
 1.77827941e-02  2.48315872e-08 -1.52099910e+02  3.12505603e+00 
 1.83020611e-02  2.78614395e-08 -1.51099929e+02  3.12457316e+00 
 1.88364909e-02  3.12609784e-08 -1.50099949e+02  3.12407619e+00 
 1.93865264e-02  3.50753104e-08 -1.49099970e+02  3.12356471e+00 
 1.99526231e-02  3.93550454e-08 -1.48099992e+02  3.12303829e+00 
 2.05352503e-02  4.41569682e-08 -1.47100015e+02  3.12249650e+00 
 2.11348904e-02  4.95447918e-08 -1.46100040e+02  3.12193889e+00 
 2.17520403e-02  5.55900026e-08 -1.45100066e+02  3.12136501e+00 
 2.23872114e-02  6.23728090e-08 -1.44100094e+02  3.12077436e+00 
 2.30409298e-02  6.99832053e-08 -1.43100123e+02  3.12016647e+00 
 2.37137371e-02  7.85221656e-08 -1.42100155e+02  3.11954083e+00 
 2.44061907e-02  8.81029835e-08 -1.41100188e+02  3.11889692e+00 
 2.51188643e-02  9.88527748e-08 -1.40100223e+02  3.11823421e+00 
 2.58523484e-02  1.10914164e-07 -1.39100260e+02  3.11755215e+00 
 2.66072506e-02  1.24447176e-07 -1.38100299e+02  3.11685017e+00 
 2.73841963e-02  1.39631358e-07 -1.37100341e+02  3.11612770e+00 
 2.81838293e-02  1.56668166e-07 -1.36100385e+02  3.11538414e+00 
 2.90068120e-02  1.75783628e-07 -1.35100432e+02  3.11461886e+00 
 2.98538262e-02  1.97231351e-07 -1.34100481e+02  3.11383124e+00 
 3.07255737e-02  2.21295880e-07 -1.33100533e+02  3.11302063e+00 
 3.16227766e-02  2.48296475e-07 -1.32100589e+02  3.11218634e+00 
 3.25461783e-02  2.78591341e-07 -1.31100648e+02  3.11132770e+00 
 3.34965439e-02  3.12582384e-07 -1.30100710e+02  3.11044399e+00 
 3.44746607e-02  3.50720540e-07 -1.29100776e+02  3.10953448e+00 
 3.54813389e-02  3.93511752e-07 -1.28100846e+02  3.10859841e+00 
 3.65174127e-02  4.41523685e-07 -1.27100920e+02  3.10763502e+00 
 3.75837404e-02  4.95393251e-07 -1.26100998e+02  3.10664350e+00 
 3.86812055e-02  5.55835055e-07 -1.25101081e+02  3.10562303e+00 
 3.98107171e-02  6.23650873e-07 -1.24101169e+02  3.10457276e+00 
 4.09732110e-02  6.99740281e-07 -1.23101262e+02  3.10349184e+00 
 4.21696503e-02  7.85112587e-07 -1.22101361e+02  3.10237936e+00 
 4.34010264e-02  8.80900207e-07 -1.21101466e+02  3.10123440e+00 
 4.46683592e-02  9.88373687e-07 -1.20101577e+02  3.10005602e+00 
 4.59726989e-02  1.10895854e-06 -1.19101694e+02  3.09884323e+00 
 4.73151259e-02  1.24425415e-06 -1.18101818e+02  3.09759504e+00 
 4.86967525e-02  1.39605496e-06 -1.17101950e+02  3.09631042e+00 
 5.01187234e-02  1.56637428e-06 -1.16102089e+02  3.09498829e+00 
 5.15822165e-02  1.75747097e-06 -1.15102237e+02  3.09362757e+00 
 5.30884444e-02  1.97187935e-06 -1.14102393e+02  3.09222713e+00 
 5.46386550e-02  2.21244281e-06 -1.13102559e+02  3.09078581e+00 
 5.62341325e-02  2.48235151e-06 -1.12102734e+02  3.08930242e+00 
 5.78761988e-02  2.78518459e-06 -1.11102920e+02  3.08777573e+00 
 5.95662144e-02  3.12495766e-06 -1.10103117e+02  3.08620449e+00 
 6.13055792e-02  3.50617596e-06 -1.09103326e+02  3.08458738e+00 
 6.30957344e-02  3.93389407e-06 -1.08103547e+02  3.08292307e+00 
 6.49381632e-02  4.41378282e-06 -1.07103781e+02  3.08121019e+00 
 6.68343918e-02  4.95220444e-06 -1.06104029e+02  3.07944732e+00 
 6.87859912e-02  5.55629680e-06 -1.05104291e+02  3.07763300e+00 
 7.07945784e-02  6.23406792e-06 -1.04104569e+02  3.07576574e+00 
 7.28618175e-02  6.99450201e-06 -1.03104864e+02  3.07384399e+00 
 7.49894209e-02  7.84767839e-06 -1.02105176e+02  3.07186616e+00 
 7.71791516e-02  8.80490491e-06 -1.01105507e+02  3.06983062e+00 
 7.94328235e-02  9.87886759e-06 -1.00105857e+02  3.06773568e+00 
 8.17523038e-02  1.10837985e-05 -9.91062276e+01  3.06557962e+00 
 8.41395142e-02  1.24356641e-05 -9.81066204e+01  3.06336066e+00 
 8.65964323e-02  1.39523762e-05 -9.71070364e+01  3.06107696e+00 
 8.91250938e-02  1.56540293e-05 -9.61074772e+01  3.05872664e+00 
 9.17275935e-02  1.75631658e-05 -9.51079440e+01  3.05630777e+00 
 9.44060876e-02  1.97050744e-05 -9.41084384e+01  3.05381833e+00 
 9.71627952e-02  2.21081240e-05 -9.31089622e+01  3.05125629e+00 
 1.00000000e-01  2.48041389e-05 -9.21095169e+01  3.04861953e+00 
 1.02920053e-01  2.78288189e-05 -9.11101045e+01  3.04590587e+00 
 1.05925373e-01  3.12222110e-05 -9.01107269e+01  3.04311308e+00 
 1.09018449e-01  3.50292382e-05 -8.91113861e+01  3.04023885e+00 
 1.12201845e-01  3.93002922e-05 -8.81120844e+01  3.03728083e+00 
 1.15478198e-01  4.40918986e-05 -8.71128240e+01  3.03423657e+00 
 1.18850223e-01  4.94674622e-05 -8.61136074e+01  3.03110357e+00 
 1.22320712e-01  5.54981035e-05 -8.51144371e+01  3.02787925e+00 
 1.25892541e-01  6.22635960e-05 -8.41153160e+01  3.02456097e+00 
 1.29568670e-01  6.98534170e-05 -8.31162469e+01  3.02114598e+00 
 1.33352143e-01  7.83679266e-05 -8.21172329e+01  3.01763150e+00 
 1.37246096e-01  8.79196886e-05 -8.11182772e+01  3.01401462e+00 
 1.41253754e-01  9.86349515e-05 -8.01193833e+01  3.01029239e+00 
 1.45378439e-01  1.10655310e-04 -7.91205549e+01  3.00646174e+00 
 1.49623566e-01  1.24139563e-04 -7.81217957e+01  3.00251955e+00 
 1.53992653e-01  1.39265807e-04 -7.71231100e+01  2.99846257e+00 
 1.58489319e-01  1.56233765e-04 -7.61245020e+01  2.99428749e+00 
 1.63117291e-01  1.75267415e-04 -7.51259764e+01  2.98999089e+00 
 1.67880402e-01  1.96617923e-04 -7.41275379e+01  2.98556926e+00 
 1.72782598e-01  2.20566936e-04 -7.31291918e+01  2.98101899e+00 
 1.77827941e-01  2.47430269e-04 -7.21309435e+01  2.97633636e+00 
 1.83020611e-01  2.77562037e-04 -7.11327987e+01  2.97151755e+00 
 1.88364909e-01  3.11359285e-04 -7.01347636e+01  2.96655864e+00 
 1.93865264e-01  3.49267175e-04 -6.91368446e+01  2.96145558e+00 
 1.99526231e-01  3.91784791e-04 -6.81390485e+01  2.95620424e+00 
 2.05352503e-01  4.39471649e-04 -6.71413827e+01  2.95080035e+00 
 2.11348904e-01  4.92954981e-04 -6.61438548e+01  2.94523951e+00 
 2.17520403e-01  5.52937896e-04 -6.51464729e+01  2.93951724e+00 
 2.23872114e-01  6.20208511e-04 -6.41492456e+01  2.93362888e+00 
 2.30409298e-01  6.95650182e-04 -6.31521819e+01  2.92756970e+00 
 2.37137371e-01  7.80252948e-04 -6.21552916e+01  2.92133480e+00 
 2.44061907e-01  8.75126345e-04 -6.11585848e+01  2.91491915e+00 
 2.51188643e-01  9.81513740e-04 -6.01620723e+01  2.90831760e+00 
 2.58523484e-01  1.10080837e-03 -5.91657655e+01  2.90152484e+00 
 2.66072506e-01  1.23457130e-03 -5.81696765e+01  2.89453544e+00 
 2.73841963e-01  1.38455145e-03 -5.71738180e+01  2.88734381e+00 
 2.81838293e-01  1.55270811e-03 -5.61782036e+01  2.87994420e+00 
 2.90068120e-01  1.74123594e-03 -5.51828475e+01  2.87233072e+00 
 2.98538262e-01  1.95259310e-03 -5.41877650e+01  2.86449733e+00 
 3.07255737e-01  2.18953254e-03 -5.31929719e+01  2.85643782e+00 
 3.16227766e-01  2.45513703e-03 -5.21984853e+01  2.84814582e+00 
 3.25461783e-01  2.75285826e-03 -5.12043230e+01  2.83961480e+00 
 3.34965439e-01  3.08656057e-03 -5.02105039e+01  2.83083804e+00 
 3.44746607e-01  3.46056964e-03 -4.92170481e+01  2.82180869e+00 
 3.54813389e-01  3.87972693e-03 -4.82239768e+01  2.81251969e+00 
 3.65174127e-01  4.34945043e-03 -4.72313123e+01  2.80296382e+00 
 3.75837404e-01  4.87580229e-03 -4.62390783e+01  2.79313367e+00 
 3.86812055e-01  5.46556438e-03 -4.52472997e+01  2.78302166e+00 
 3.98107171e-01  6.12632238e-03 -4.42560031e+01  2.77262001e+00 
 4.09732110e-01  6.86655950e-03 -4.32652162e+01  2.76192077e+00 
 4.21696503e-01  7.69576082e-03 -4.22749688e+01  2.75091580e+00 
 4.34010264e-01  8.62452947e-03 -4.12852918e+01  2.73959675e+00 
 4.46683592e-01  9.66471583e-03 -4.02962182e+01  2.72795511e+00 
 4.59726989e-01  1.08295611e-02 -3.93077828e+01  2.71598215e+00 
 4.73151259e-01  1.21338573e-02 -3.83200224e+01  2.70366895e+00 
 4.86967525e-01  1.35941239e-02 -3.73329755e+01  2.69100642e+00 
 5.01187234e-01  1.52288055e-02 -3.63466832e+01  2.67798524e+00 
 5.15822165e-01  1.70584895e-02 -3.53611886e+01  2.66459591e+00 
 5.30884444e-01  1.91061482e-02 -3.43765372e+01  2.65082876e+00 
 5.46386550e-01  2.13974070e-02 -3.33927770e+01  2.63667390e+00 
 5.62341325e-01  2.39608412e-02 -3.24099588e+01  2.62212126e+00 
 5.78761988e-01  2.68283033e-02 -3.14281358e+01  2.60716057e+00 
 5.95662144e-01  3.00352864e-02 -3.04473645e+01  2.59178140e+00 
 6.13055792e-01  3.36213234e-02 -2.94677039e+01  2.57597313e+00 
 6.30957344e-01  3.76304287e-02 -2.84892167e+01  2.55972495e+00 
 6.49381632e-01  4.21115838e-02 -2.75119685e+01  2.54302590e+00 
 6.68343918e-01  4.71192718e-02 -2.65360286e+01  2.52586485e+00 
 6.87859912e-01  5.27140651e-02 -2.55614698e+01  2.50823052e+00 
 7.07945784e-01  5.89632699e-02 -2.45883688e+01  2.49011148e+00 
 7.28618175e-01  6.59416330e-02 -2.36168060e+01  2.47149617e+00 
 7.49894209e-01  7.37321143e-02 -2.26468662e+01  2.45237289e+00 
 7.71791516e-01  8.24267323e-02 -2.16786383e+01  2.43272985e+00 
 7.94328235e-01  9.21274848e-02 -2.07122157e+01  2.41255514e+00 
 8.17523038e-01  1.02947352e-01 -1.97476964e+01  2.39183680e+00 
 8.41395142e-01  1.15011387e-01 -1.87851832e+01  2.37056277e+00 
 8.65964323e-01  1.28457897e-01 -1.78247839e+01  2.34872097e+00 
 8.91250938e-01  1.43439720e-01 -1.68666114e+01  2.32629930e+00 
 9.17275935e-01  1.60125610e-01 -1.59107841e+01  2.30328563e+00 
 9.44060876e-01  1.78701714e-01 -1.49574256e+01  2.27966788e+00 
 9.71627952e-01  1.99373174e-01 -1.40066655e+01  2.25543402e+00 
 1.00000000e+00  2.22365828e-01 -1.30586391e+01  2.23057209e+00 
 1.02920053e+00  2.47928028e-01 -1.21134875e+01  2.20507025e+00 
 1.05925373e+00  2.76332579e-01 -1.11713582e+01  2.17891679e+00 
 1.09018449e+00  3.07878779e-01 -1.02324049e+01  2.15210021e+00 
 1.12201845e+00  3.42894575e-01 -9.29678772e+00  2.12460920e+00 
 1.15478198e+00  3.81738827e-01 -8.36467332e+00  2.09643274e+00 
 1.18850223e+00  4.24803662e-01 -7.43623496e+00  2.06756008e+00 
 1.22320712e+00  4.72516922e-01 -6.51165267e+00  2.03798086e+00 
 1.25892541e+00  5.25344680e-01 -5.59111323e+00  2.00768509e+00 
 1.29568670e+00  5.83793809e-01 -4.67481030e+00  1.97666323e+00 
 1.33352143e+00  6.48414595e-01 -3.76294436e+00  1.94490626e+00 
 1.37246096e+00  7.19803347e-01 -2.85572276e+00  1.91240571e+00 
 1.41253754e+00  7.98604985e-01 -1.95335966e+00  1.87915371e+00 
 1.45378439e+00  8.85515567e-01 -1.05607599e+00  1.84514308e+00 
 1.49623566e+00  9.81284716e-01 -1.64099308e-01  1.81036737e+00 
 1.53992653e+00  1.08671788e+00  7.22336289e-01  1.77482091e+00 
 1.58489319e+00  1.20267842e+00  1.60299037e+00  1.73849893e+00 
 1.63117291e+00  1.33008936e+00  2.47761637e+00  1.70139754e+00 
 1.67880402e+00  1.46993487e+00  3.34596186e+00  1.66351387e+00 
 1.72782598e+00  1.62326133e+00  4.20776886e+00  1.62484608e+00 
 1.77827941e+00  1.79117784e+00  5.06277415e+00  1.58539348e+00 
 1.83020611e+00  1.97485624e+00  5.91070972e+00  1.54515653e+00 
 1.88364909e+00  2.17553042e+00  6.75130320e+00  1.50413695e+00 
 1.93865264e+00  2.39449491e+00  7.58427837e+00  1.46233779e+00 
 1.99526231e+00  2.63310261e+00  8.40935567e+00  1.41976343e+00 
 2.05352503e+00  2.89276160e+00  9.22625287e+00  1.37641971e+00 
 2.11348904e+00  3.17493095e+00  1.00346857e+01  1.33231391e+00 
 2.17520403e+00  3.48111544e+00  1.08343685e+01  1.28745488e+00 
 2.23872114e+00  3.81285908e+00  1.16250151e+01  1.24185300e+00 
 2.30409298e+00  4.17173749e+00  1.24063395e+01  1.19552030e+00 
 2.37137371e+00  4.55934894e+00  1.31780566e+01  1.14847042e+00 
 2.44061907e+00  4.97730414e+00  1.39398836e+01  1.10071870e+00 
 2.51188643e+00  5.42721479e+00  1.46915402e+01  1.05228216e+00 
 2.58523484e+00  5.91068077e+00  1.54327501e+01  1.00317953e+00 
 2.66072506e+00  6.42927623e+00  1.61632417e+01  9.53431255e-01 
 2.73841963e+00  6.98453445e+00  1.68827493e+01  9.03059484e-01 
 2.81838293e+00  7.57793179e+00  1.75910138e+01  8.52088070e-01 
 2.90068120e+00  8.21087071e+00  1.82877843e+01  8.00542540e-01 
 2.98538262e+00  8.88466212e+00  1.89728183e+01  7.48450070e-01 
 3.07255737e+00  9.60050727e+00  1.96458836e+01  6.95839441e-01 
 3.16227766e+00  1.03594795e+01  2.03067587e+01  6.42740993e-01 
 3.25461783e+00  1.11625059e+01  2.09552340e+01  5.89186565e-01 
 3.34965439e+00  1.20103494e+01  2.15911129e+01  5.35209424e-01 
 3.44746607e+00  1.29035918e+01  2.22142123e+01  4.80844191e-01 
 3.54813389e+00  1.38426173e+01  2.28243642e+01  4.26126749e-01 
 3.65174127e+00  1.48275976e+01  2.34214158e+01  3.71094148e-01 
 3.75837404e+00  1.58584791e+01  2.40052307e+01  3.15784501e-01 
 3.86812055e+00  1.69349715e+01  2.45756894e+01  2.60236870e-01 
 3.98107171e+00  1.80565389e+01  2.51326901e+01  2.04491147e-01 
 4.09732110e+00  1.92223935e+01  2.56761493e+01  1.48587924e-01 
 4.21696503e+00  2.04314923e+01  2.62060018e+01  9.25683658e-02 
 4.34010264e+00  2.16825363e+01  2.67222017e+01  3.64740678e-02 
 4.46683592e+00  2.29739733e+01  2.72247222e+01 -1.96530814e-02 
 4.59726989e+00  2.43040030e+01  2.77135562e+01 -7.57710454e-02 
 4.73151259e+00  2.56705867e+01  2.81887159e+01 -1.31837785e-01 
 4.86967525e+00  2.70714584e+01  2.86502331e+01 -1.87811404e-01 
 5.01187234e+00  2.85041400e+01  2.90981588e+01 -2.43650296e-01 
 5.15822165e+00  2.99659587e+01  2.95325635e+01 -2.99313282e-01 
 5.30884444e+00  3.14540672e+01  2.99535362e+01 -3.54759762e-01 
 5.46386550e+00  3.29654656e+01  3.03611843e+01 -4.09949839e-01 
 5.62341325e+00  3.44970257e+01  3.07556330e+01 -4.64844462e-01 
 5.78761988e+00  3.60455159e+01  3.11370249e+01 -5.19405542e-01 
 5.95662144e+00  3.76076282e+01  3.15055189e+01 -5.73596077e-01 
 6.13055792e+00  3.91800045e+01  3.18612896e+01 -6.27380260e-01 
 6.30957344e+00  4.07592642e+01  3.22045267e+01 -6.80723582e-01 
 6.49381632e+00  4.23420308e+01  3.25354337e+01 -7.33592925e-01 
