 frequency       onoise_spectrum inoise_spectrum
 1.00000000e+01  3.33668536e-04  5.78314330e-06 
 1.02920053e+01  3.24853526e-04  5.54008925e-06 
 1.05925373e+01  3.16056559e-04  5.30755108e-06 
 1.09018449e+01  3.07297261e-04  5.08506567e-06 
 1.12201845e+01  2.98593910e-04  4.87219131e-06 
 1.15478198e+01  2.89963423e-04  4.66850668e-06 
 1.18850223e+01  2.81421355e-04  4.47360978e-06 
 1.22320712e+01  2.72981913e-04  4.28711697e-06 
 1.25892541e+01  2.64657971e-04  4.10866208e-06 
 1.29568670e+01  2.56461107e-04  3.93789549e-06 
 1.33352143e+01  2.48401639e-04  3.77448340e-06 
 1.37246096e+01  2.40488672e-04  3.61810701e-06 
 1.41253754e+01  2.32730146e-04  3.46846178e-06 
 1.45378439e+01  2.25132896e-04  3.32525680e-06 
 1.49623566e+01  2.17702703e-04  3.18821410e-06 
 1.53992653e+01  2.10444363e-04  3.05706805e-06 
 1.58489319e+01  2.03361740e-04  2.93156478e-06 
 1.63117291e+01  1.96457834e-04  2.81146162e-06 
 1.67880402e+01  1.89734839e-04  2.69652657e-06 
 1.72782598e+01  1.83194209e-04  2.58653784e-06 
 1.77827941e+01  1.76836713e-04  2.48128332e-06 
 1.83020611e+01  1.70662494e-04  2.38056020e-06 
 1.88364909e+01  1.64671128e-04  2.28417448e-06 
 1.93865264e+01  1.58861675e-04  2.19194062e-06 
 1.99526231e+01  1.53232732e-04  2.10368110e-06 
 2.05352503e+01  1.47782481e-04  2.01922611e-06 
 2.11348904e+01  1.42508737e-04  1.93841317e-06 
 2.17520403e+01  1.37408987e-04  1.86108681e-06 
 2.23872114e+01  1.32480435e-04  1.78709823e-06 
 2.30409298e+01  1.27720040e-04  1.71630503e-06 
 2.37137371e+01  1.23124545e-04  1.64857092e-06 
 2.44061907e+01  1.18690518e-04  1.58376542e-06 
 2.51188643e+01  1.14414374e-04  1.52176362e-06 
 2.58523484e+01  1.10292408e-04  1.46244595e-06 
 2.66072506e+01  1.06320819e-04  1.40569789e-06 
 2.73841963e+01  1.02495728e-04  1.35140980e-06 
 2.81838293e+01  9.88132052e-05  1.29947667e-06 
 2.90068120e+01  9.52692858e-05  1.24979792e-06 
 2.98538262e+01  9.18599855e-05  1.20227721e-06 
 3.07255737e+01  8.85813176e-05  1.15682227e-06 
 3.16227766e+01  8.54293052e-05  1.11334466e-06 
 3.25461783e+01  8.23999934e-05  1.07175969e-06 
 3.34965439e+01  7.94894598e-05  1.03198617e-06 
 3.44746607e+01  7.66938237e-05  9.93946307e-07 
 3.54813389e+01  7.40092539e-05  9.57565547e-07 
 3.65174127e+01  7.14319757e-05  9.22772422e-07 
 3.75837404e+01  6.89582769e-05  8.89498425e-07 
 3.86812055e+01  6.65845128e-05  8.57677879e-07 
 3.98107171e+01  6.43071103e-05  8.27247815e-07 
 4.09732110e+01  6.21225718e-05  7.98147854e-07 
 4.21696503e+01  6.00274773e-05  7.70320096e-07 
 4.34010264e+01  5.80184876e-05  7.43709015e-07 
 4.46683592e+01  5.60923453e-05  7.18261360e-07 
 4.59726989e+01  5.42458765e-05  6.93926054e-07 
 4.73151259e+01  5.24759914e-05  6.70654107e-07 
 4.86967525e+01  5.07796851e-05  6.48398529e-07 
 5.01187234e+01  4.91540376e-05  6.27114246e-07 
 5.15822165e+01  4.75962137e-05  6.06758020e-07 
 5.30884444e+01  4.61034629e-05  5.87288379e-07 
 5.46386550e+01  4.46731185e-05  5.68665544e-07 
 5.62341325e+01  4.33025975e-05  5.50851361e-07 
 5.78761988e+01  4.19893991e-05  5.33809238e-07 
 5.95662144e+01  4.07311042e-05  5.17504083e-07 
 6.13055792e+01  3.95253740e-05  5.01902250e-07 
 6.30957344e+01  3.83699490e-05  4.86971478e-07 
 6.49381632e+01  3.72626476e-05  4.72680847e-07 
 6.68343918e+01  3.62013649e-05  4.59000720e-07 
 6.87859912e+01  3.51840714e-05  4.45902700e-07 
 7.07945784e+01  3.42088112e-05  4.33359585e-07 
 7.28618175e+01  3.32737008e-05  4.21345324e-07 
 7.49894209e+01  3.23769279e-05  4.09834975e-07 
 7.71791516e+01  3.15167490e-05  3.98804666e-07 
 7.94328235e+01  3.06914887e-05  3.88231557e-07 
 8.17523038e+01  2.98995377e-05  3.78093803e-07 
 8.41395142e+01  2.91393514e-05  3.68370520e-07 
 8.65964323e+01  2.84094481e-05  3.59041748e-07 
 8.91250938e+01  2.77084073e-05  3.50088422e-07 
 9.17275935e+01  2.70348686e-05  3.41492338e-07 
 9.44060876e+01  2.63875294e-05  3.33236121e-07 
 9.71627952e+01  2.57651436e-05  3.25303198e-07 
 1.00000000e+02  2.51665199e-05  3.17677765e-07 
 1.02920053e+02  2.45905202e-05  3.10344762e-07 
 1.05925373e+02  2.40360577e-05  3.03289844e-07 
 1.09018449e+02  2.35020955e-05  2.96499351e-07 
 1.12201845e+02  2.29876449e-05  2.89960286e-07 
 1.15478198e+02  2.24917637e-05  2.83660288e-07 
 1.18850223e+02  2.20135544e-05  2.77587604e-07 
 1.22320712e+02  2.15521629e-05  2.71731069e-07 
 1.25892541e+02  2.11067768e-05  2.66080075e-07 
 1.29568670e+02  2.06766236e-05  2.60624557e-07 
 1.33352143e+02  2.02609694e-05  2.55354961e-07 
 1.37246096e+02  1.98591172e-05  2.50262227e-07 
 1.41253754e+02  1.94704052e-05  2.45337767e-07 
 1.45378439e+02  1.90942059e-05  2.40573440e-07 
 1.49623566e+02  1.87299239e-05  2.35961537e-07 
 1.53992653e+02  1.83769950e-05  2.31494757e-07 
 1.58489319e+02  1.80348846e-05  2.27166189e-07 
 1.63117291e+02  1.77030863e-05  2.22969293e-07 
 1.67880402e+02  1.73811207e-05  2.18897884e-07 
 1.72782598e+02  1.70685340e-05  2.14946110e-07 
 1.77827941e+02  1.67648968e-05  2.11108440e-07 
 1.83020611e+02  1.64698029e-05  2.07379646e-07 
 1.88364909e+02  1.61828683e-05  2.03754786e-07 
 1.93865264e+02  1.59037296e-05  2.00229190e-07 
 1.99526231e+02  1.56320435e-05  1.96798448e-07 
 2.05352503e+02  1.53674854e-05  1.93458390e-07 
 2.11348904e+02  1.51097485e-05  1.90205082e-07 
 2.17520403e+02  1.48585429e-05  1.87034804e-07 
 2.23872114e+02  1.46135945e-05  1.83944045e-07 
 2.30409298e+02  1.43746446e-05  1.80929487e-07 
 2.37137371e+02  1.41414484e-05  1.77987998e-07 
 2.44061907e+02  1.39137745e-05  1.75116616e-07 
 2.51188643e+02  1.36914046e-05  1.72312548e-07 
 2.58523484e+02  1.34741319e-05  1.69573149e-07 
 2.66072506e+02  1.32617611e-05  1.66895925e-07 
 2.73841963e+02  1.30541075e-05  1.64278514e-07 
 2.81838293e+02  1.28509965e-05  1.61718687e-07 
 2.90068120e+02  1.26522629e-05  1.59214334e-07 
 2.98538262e+02  1.24577501e-05  1.56763459e-07 
 3.07255737e+02  1.22673103e-05  1.54364175e-07 
 3.16227766e+02  1.20808034e-05  1.52014696e-07 
 3.25461783e+02  1.18980964e-05  1.49713328e-07 
 3.34965439e+02  1.17190638e-05  1.47458469e-07 
 3.44746607e+02  1.15435861e-05  1.45248602e-07 
 3.54813389e+02  1.13715505e-05  1.43082286e-07 
 3.65174127e+02  1.12028494e-05  1.40958156e-07 
 3.75837404e+02  1.10373812e-05  1.38874915e-07 
 3.86812055e+02  1.08750490e-05  1.36831335e-07 
 3.98107171e+02  1.07157608e-05  1.34826245e-07 
 4.09732110e+02  1.05594293e-05  1.32858535e-07 
 4.21696503e+02  1.04059712e-05  1.30927149e-07 
 4.34010264e+02  1.02553073e-05  1.29031081e-07 
 4.46683592e+02  1.01073622e-05  1.27169373e-07 
 4.59726989e+02  9.96206395e-06  1.25341113e-07 
 4.73151259e+02  9.81934389e-06  1.23545431e-07 
 4.86967525e+02  9.67913653e-06  1.21781497e-07 
 5.01187234e+02  9.54137928e-06  1.20048518e-07 
 5.15822165e+02  9.40601232e-06  1.18345737e-07 
 5.30884444e+02  9.27297841e-06  1.16672429e-07 
 5.46386550e+02  9.14222276e-06  1.15027902e-07 
 5.62341325e+02  9.01369285e-06  1.13411492e-07 
 5.78761988e+02  8.88733836e-06  1.11822562e-07 
 5.95662144e+02  8.76311096e-06  1.10260504e-07 
 6.13055792e+02  8.64096426e-06  1.08724731e-07 
 6.30957344e+02  8.52085367e-06  1.07214682e-07 
 6.49381632e+02  8.40273630e-06  1.05729815e-07 
 6.68343918e+02  8.28657087e-06  1.04269612e-07 
 6.87859912e+02  8.17231760e-06  1.02833571e-07 
 7.07945784e+02  8.05993814e-06  1.01421210e-07 
 7.28618175e+02  7.94939550e-06  1.00032065e-07 
 7.49894209e+02  7.84065396e-06  9.86656869e-08 
 7.71791516e+02  7.73367897e-06  9.73216427e-08 
 7.94328235e+02  7.62843716e-06  9.59995142e-08 
 8.17523038e+02  7.52489621e-06  9.46988967e-08 
 8.41395142e+02  7.42302482e-06  9.34193987e-08 
 8.65964323e+02  7.32279264e-06  9.21606414e-08 
 8.91250938e+02  7.22417025e-06  9.09222573e-08 
 9.17275935e+02  7.12712907e-06  8.97038905e-08 
 9.44060876e+02  7.03164137e-06  8.85051954e-08 
 9.71627952e+02  6.93768014e-06  8.73258368e-08 
 1.00000000e+03  6.84521917e-06  8.61654887e-08 
 1.02920053e+03  6.75423289e-06  8.50238346e-08 
 1.05925373e+03  6.66469642e-06  8.39005665e-08 
 1.09018449e+03  6.57658549e-06  8.27953845e-08 
 1.12201845e+03  6.48987646e-06  8.17079968e-08 
 1.15478198e+03  6.40454621e-06  8.06381191e-08 
 1.18850223e+03  6.32057220e-06  7.95854741e-08 
 1.22320712e+03  6.23793237e-06  7.85497917e-08 
 1.25892541e+03  6.15660516e-06  7.75308079e-08 
 1.29568670e+03  6.07656948e-06  7.65282652e-08 
 1.33352143e+03  5.99780466e-06  7.55419122e-08 
 1.37246096e+03  5.92029047e-06  7.45715031e-08 
 1.41253754e+03  5.84400707e-06  7.36167975e-08 
 1.45378439e+03  5.76893499e-06  7.26775605e-08 
 1.49623566e+03  5.69505513e-06  7.17535621e-08 
 1.53992653e+03  5.62234872e-06  7.08445773e-08 
 1.58489319e+03  5.55079734e-06  6.99503856e-08 
 1.63117291e+03  5.48038284e-06  6.90707712e-08 
 1.67880402e+03  5.41108741e-06  6.82055225e-08 
 1.72782598e+03  5.34289348e-06  6.73544321e-08 
 1.77827941e+03  5.27578376e-06  6.65172966e-08 
 1.83020611e+03  5.20974121e-06  6.56939164e-08 
 1.88364909e+03  5.14474901e-06  6.48840959e-08 
 1.93865264e+03  5.08079058e-06  6.40876426e-08 
 1.99526231e+03  5.01784954e-06  6.33043681e-08 
 2.05352503e+03  4.95590971e-06  6.25340868e-08 
 2.11348904e+03  4.89495510e-06  6.17766166e-08 
 2.17520403e+03  4.83496989e-06  6.10317787e-08 
 2.23872114e+03  4.77593840e-06  6.02993970e-08 
 2.30409298e+03  4.71784512e-06  5.95792985e-08 
 2.37137371e+03  4.66067468e-06  5.88713130e-08 
 2.44061907e+03  4.60441183e-06  5.81752732e-08 
 2.51188643e+03  4.54904142e-06  5.74910142e-08 
 2.58523484e+03  4.49454842e-06  5.68183740e-08 
 2.66072506e+03  4.44091790e-06  5.61571929e-08 
 2.73841963e+03  4.38813498e-06  5.55073136e-08 
 2.81838293e+03  4.33618488e-06  5.48685813e-08 
 2.90068120e+03  4.28505286e-06  5.42408435e-08 
 2.98538262e+03  4.23472424e-06  5.36239498e-08 
 3.07255737e+03  4.18518436e-06  5.30177520e-08 
 3.16227766e+03  4.13641861e-06  5.24221041e-08 
 3.25461783e+03  4.08841236e-06  5.18368620e-08 
 3.34965439e+03  4.04115102e-06  5.12618837e-08 
 3.44746607e+03  3.99461996e-06  5.06970291e-08 
 3.54813389e+03  3.94880453e-06  5.01421599e-08 
 3.65174127e+03  3.90369007e-06  4.95971397e-08 
 3.75837404e+03  3.85926186e-06  4.90618340e-08 
 3.86812055e+03  3.81550512e-06  4.85361098e-08 
 3.98107171e+03  3.77240501e-06  4.80198359e-08 
 4.09732110e+03  3.72994660e-06  4.75128828e-08 
 4.21696503e+03  3.68811487e-06  4.70151225e-08 
 4.34010264e+03  3.64689471e-06  4.65264287e-08 
 4.46683592e+03  3.60627086e-06  4.60466765e-08 
 4.59726989e+03  3.56622795e-06  4.55757426e-08 
 4.73151259e+03  3.52675047e-06  4.51135050e-08 
 4.86967525e+03  3.48782274e-06  4.46598434e-08 
 5.01187234e+03  3.44942893e-06  4.42146386e-08 
 5.15822165e+03  3.41155302e-06  4.37777730e-08 
 5.30884444e+03  3.37417878e-06  4.33491302e-08 
 5.46386550e+03  3.33728981e-06  4.29285952e-08 
 5.62341325e+03  3.30086946e-06  4.25160541e-08 
 5.78761988e+03  3.26490088e-06  4.21113946e-08 
 5.95662144e+03  3.22936696e-06  4.17145055e-08 
 6.13055792e+03  3.19425034e-06  4.13252765e-08 
 6.30957344e+03  3.15953343e-06  4.09435991e-08 
 6.49381632e+03  3.12519832e-06  4.05693655e-08 
 6.68343918e+03  3.09122687e-06  4.02024693e-08 
 6.87859912e+03  3.05760064e-06  3.98428052e-08 
 7.07945784e+03  3.02430088e-06  3.94902691e-08 
 7.28618175e+03  2.99130856e-06  3.91447579e-08 
 7.49894209e+03  2.95860436e-06  3.88061699e-08 
 7.71791516e+03  2.92616865e-06  3.84744043e-08 
 7.94328235e+03  2.89398149e-06  3.81493613e-08 
 8.17523038e+03  2.86202265e-06  3.78309426e-08 
 8.41395142e+03  2.83027161e-06  3.75190506e-08 
 8.65964323e+03  2.79870758e-06  3.72135891e-08 
 8.91250938e+03  2.76730946e-06  3.69144629e-08 
 9.17275935e+03  2.73605592e-06  3.66215778e-08 
 9.44060876e+03  2.70492537e-06  3.63348410e-08 
 9.71627952e+03  2.67389603e-06  3.60541605e-08 
 1.00000000e+04  2.64294590e-06  3.57794456e-08 
 1.02920053e+04  2.61205282e-06  3.55106066e-08 
 1.05925373e+04  2.58119452e-06  3.52475553e-08 
 1.09018449e+04  2.55034864e-06  3.49902042e-08 
 1.12201845e+04  2.51949277e-06  3.47384673e-08 
 1.15478198e+04  2.48860455e-06  3.44922596e-08 
 1.18850223e+04  2.45766168e-06  3.42514975e-08 
 1.22320712e+04  2.42664199e-06  3.40160983e-08 
 1.25892541e+04  2.39552357e-06  3.37859810e-08 
 1.29568670e+04  2.36428476e-06  3.35610655e-08 
 1.33352143e+04  2.33290435e-06  3.33412731e-08 
 1.37246096e+04  2.30136156e-06  3.31265266e-08 
 1.41253754e+04  2.26963623e-06  3.29167500e-08 
 1.45378439e+04  2.23770890e-06  3.27118686e-08 
 1.49623566e+04  2.20556092e-06  3.25118094e-08 
 1.53992653e+04  2.17317458e-06  3.23165006e-08 
 1.58489319e+04  2.14053326e-06  3.21258720e-08 
 1.63117291e+04  2.10762152e-06  3.19398551e-08 
 1.67880402e+04  2.07442531e-06  3.17583828e-08 
 1.72782598e+04  2.04093205e-06  3.15813896e-08 
 1.77827941e+04  2.00713081e-06  3.14088118e-08 
 1.83020611e+04  1.97301246e-06  3.12405876e-08 
 1.88364909e+04  1.93856980e-06  3.10766566e-08 
 1.93865264e+04  1.90379775e-06  3.09169606e-08 
 1.99526231e+04  1.86869342e-06  3.07614432e-08 
