 frequency       gain_vv         gain_db         phase_deg      
 1.00000000e-03  2.48324816e-13 -2.52099598e+02  3.14066348e+00 
 1.02920053e-03  2.78625024e-13 -2.51099598e+02  3.14063635e+00 
 1.05925373e-03  3.12622416e-13 -2.50099598e+02  3.14060842e+00 
 1.09018449e-03  3.50768118e-13 -2.49099598e+02  3.14057968e+00 
 1.12201845e-03  3.93568298e-13 -2.48099598e+02  3.14055010e+00 
 1.15478198e-03  4.41590890e-13 -2.47099598e+02  3.14051966e+00 
 1.18850223e-03  4.95473123e-13 -2.46099598e+02  3.14048833e+00 
 1.22320712e-03  5.55929983e-13 -2.45099598e+02  3.14045608e+00 
 1.25892541e-03  6.23763693e-13 -2.44099598e+02  3.14042289e+00 
 1.29568670e-03  6.99874368e-13 -2.43099598e+02  3.14038874e+00 
 1.33352143e-03  7.85271947e-13 -2.42099598e+02  3.14035358e+00 
 1.37246096e-03  8.81089606e-13 -2.41099598e+02  3.14031740e+00 
 1.41253754e-03  9.88598785e-13 -2.40099599e+02  3.14028016e+00 
 1.45378439e-03  1.10922607e-12 -2.39099599e+02  3.14024184e+00 
 1.49623566e-03  1.24457210e-12 -2.38099599e+02  3.14020239e+00 
 1.53992653e-03  1.39643284e-12 -2.37099599e+02  3.14016180e+00 
 1.58489319e-03  1.56682339e-12 -2.36099599e+02  3.14012001e+00 
 1.63117291e-03  1.75800473e-12 -2.35099599e+02  3.14007701e+00 
 1.67880402e-03  1.97251372e-12 -2.34099599e+02  3.14003275e+00 
 1.72782598e-03  2.21319675e-12 -2.33099600e+02  3.13998720e+00 
 1.77827941e-03  2.48324754e-12 -2.32099600e+02  3.13994032e+00 
 1.83020611e-03  2.78624951e-12 -2.31099600e+02  3.13989208e+00 
 1.88364909e-03  3.12622330e-12 -2.30099600e+02  3.13984242e+00 
 1.93865264e-03  3.50768015e-12 -2.29099600e+02  3.13979131e+00 
 1.99526231e-03  3.93568176e-12 -2.28099601e+02  3.13973871e+00 
 2.05352503e-03  4.41590745e-12 -2.27099601e+02  3.13968457e+00 
 2.11348904e-03  4.95472951e-12 -2.26099601e+02  3.13962886e+00 
 2.17520403e-03  5.55929778e-12 -2.25099601e+02  3.13957151e+00 
 2.23872114e-03  6.23763450e-12 -2.24099602e+02  3.13951249e+00 
 2.30409298e-03  6.99874078e-12 -2.23099602e+02  3.13945175e+00 
 2.37137371e-03  7.85271603e-12 -2.22099602e+02  3.13938924e+00 
 2.44061907e-03  8.81089197e-12 -2.21099602e+02  3.13932490e+00 
 2.51188643e-03  9.88598299e-12 -2.20099603e+02  3.13925868e+00 
 2.58523484e-03  1.10922549e-11 -2.19099603e+02  3.13919052e+00 
 2.66072506e-03  1.24457141e-11 -2.18099604e+02  3.13912038e+00 
 2.73841963e-03  1.39643202e-11 -2.17099604e+02  3.13904819e+00 
 2.81838293e-03  1.56682242e-11 -2.16099604e+02  3.13897389e+00 
 2.90068120e-03  1.75800358e-11 -2.15099605e+02  3.13889742e+00 
 2.98538262e-03  1.97251235e-11 -2.14099605e+02  3.13881872e+00 
 3.07255737e-03  2.21319512e-11 -2.13099606e+02  3.13873772e+00 
 3.16227766e-03  2.48324561e-11 -2.12099606e+02  3.13865435e+00 
 3.25461783e-03  2.78624721e-11 -2.11099607e+02  3.13856855e+00 
 3.34965439e-03  3.12622057e-11 -2.10099608e+02  3.13848025e+00 
 3.44746607e-03  3.50767690e-11 -2.09099608e+02  3.13838936e+00 
 3.54813389e-03  3.93567790e-11 -2.08099609e+02  3.13829582e+00 
 3.65174127e-03  4.41590286e-11 -2.07099610e+02  3.13819955e+00 
 3.75837404e-03  4.95472405e-11 -2.06099611e+02  3.13810047e+00 
 3.86812055e-03  5.55929129e-11 -2.05099611e+02  3.13799850e+00 
 3.98107171e-03  6.23762679e-11 -2.04099612e+02  3.13789355e+00 
 4.09732110e-03  6.99873162e-11 -2.03099613e+02  3.13778553e+00 
 4.21696503e-03  7.85270515e-11 -2.02099614e+02  3.13767436e+00 
 4.34010264e-03  8.81087903e-11 -2.01099615e+02  3.13755995e+00 
 4.46683592e-03  9.88596761e-11 -2.00099616e+02  3.13744219e+00 
 4.59726989e-03  1.10922366e-10 -1.99099618e+02  3.13732100e+00 
 4.73151259e-03  1.24456924e-10 -1.98099619e+02  3.13719626e+00 
 4.86967525e-03  1.39642944e-10 -1.97099620e+02  3.13706788e+00 
 5.01187234e-03  1.56681935e-10 -1.96099621e+02  3.13693576e+00 
 5.15822165e-03  1.75799993e-10 -1.95099623e+02  3.13679978e+00 
 5.30884444e-03  1.97250801e-10 -1.94099624e+02  3.13665982e+00 
 5.46386550e-03  2.21318997e-10 -1.93099626e+02  3.13651578e+00 
 5.62341325e-03  2.48323949e-10 -1.92099628e+02  3.13636753e+00 
 5.78761988e-03  2.78623994e-10 -1.91099630e+02  3.13621496e+00 
 5.95662144e-03  3.12621192e-10 -1.90099632e+02  3.13605793e+00 
 6.13055792e-03  3.50766662e-10 -1.89099634e+02  3.13589631e+00 
 6.30957344e-03  3.93566568e-10 -1.88099636e+02  3.13572997e+00 
 6.49381632e-03  4.41588834e-10 -1.87099638e+02  3.13555878e+00 
 6.68343918e-03  4.95470680e-10 -1.86099641e+02  3.13538259e+00 
 6.87859912e-03  5.55927079e-10 -1.85099643e+02  3.13520125e+00 
 7.07945784e-03  6.23760242e-10 -1.84099646e+02  3.13501462e+00 
 7.28618175e-03  6.99870266e-10 -1.83099649e+02  3.13482254e+00 
 7.49894209e-03  7.85267072e-10 -1.82099652e+02  3.13462485e+00 
 7.71791516e-03  8.81083812e-10 -1.81099656e+02  3.13442138e+00 
 7.94328235e-03  9.88591899e-10 -1.80099659e+02  3.13421198e+00 
 8.17523038e-03  1.10921788e-09 -1.79099663e+02  3.13399646e+00 
 8.41395142e-03  1.24456237e-09 -1.78099667e+02  3.13377465e+00 
 8.65964323e-03  1.39642128e-09 -1.77099671e+02  3.13354636e+00 
 8.91250938e-03  1.56680965e-09 -1.76099675e+02  3.13331140e+00 
 9.17275935e-03  1.75798840e-09 -1.75099680e+02  3.13306959e+00 
 9.44060876e-03  1.97249431e-09 -1.74099685e+02  3.13282071e+00 
 9.71627952e-03  2.21317368e-09 -1.73099690e+02  3.13256457e+00 
 1.00000000e-02  2.48322013e-09 -1.72099696e+02  3.13230094e+00 
 1.02920053e-02  2.78621693e-09 -1.71099701e+02  3.13202962e+00 
 1.05925373e-02  3.12618458e-09 -1.70099708e+02  3.13175038e+00 
 1.09018449e-02  3.50763413e-09 -1.69099714e+02  3.13146298e+00 
 1.12201845e-02  3.93562706e-09 -1.68099721e+02  3.13116719e+00 
 1.15478198e-02  4.41584244e-09 -1.67099729e+02  3.13086276e+00 
 1.18850223e-02  4.95465224e-09 -1.66099736e+02  3.13054944e+00 
 1.22320712e-02  5.55920595e-09 -1.65099745e+02  3.13022698e+00 
 1.25892541e-02  6.23752536e-09 -1.64099754e+02  3.12989510e+00 
 1.29568670e-02  6.99861107e-09 -1.63099763e+02  3.12955352e+00 
 1.33352143e-02  7.85256187e-09 -1.62099773e+02  3.12920198e+00 
 1.37246096e-02  8.81070874e-09 -1.61099783e+02  3.12884017e+00 
 1.41253754e-02  9.88576523e-09 -1.60099794e+02  3.12846779e+00 
 1.45378439e-02  1.10919961e-08 -1.59099806e+02  3.12808454e+00 
 1.49623566e-02  1.24454065e-08 -1.58099818e+02  3.12769010e+00 
 1.53992653e-02  1.39639547e-08 -1.57099831e+02  3.12728414e+00 
 1.58489319e-02  1.56677897e-08 -1.56099845e+02  3.12686633e+00 
 1.63117291e-02  1.75795194e-08 -1.55099860e+02  3.12643632e+00 
 1.67880402e-02  1.97245097e-08 -1.54099876e+02  3.12599375e+00 
 1.72782598e-02  2.21312218e-08 -1.53099892e+02  3.12553826e+00 
 1.77827941e-02  2.48315892e-08 -1.52099910e+02  3.12506947e+00 
 1.83020611e-02  2.78614418e-08 -1.51099928e+02  3.12458699e+00 
 1.88364909e-02  3.12609811e-08 -1.50099948e+02  3.12409042e+00 
 1.93865264e-02  3.50753136e-08 -1.49099969e+02  3.12357936e+00 
 1.99526231e-02  3.93550493e-08 -1.48099991e+02  3.12305337e+00 
 2.05352503e-02  4.41569728e-08 -1.47100014e+02  3.12251202e+00 
 2.11348904e-02  4.95447972e-08 -1.46100039e+02  3.12195487e+00 
 2.17520403e-02  5.55900091e-08 -1.45100065e+02  3.12138145e+00 
 2.23872114e-02  6.23728167e-08 -1.44100093e+02  3.12079128e+00 
 2.30409298e-02  6.99832145e-08 -1.43100122e+02  3.12018388e+00 
 2.37137371e-02  7.85221765e-08 -1.42100153e+02  3.11955875e+00 
 2.44061907e-02  8.81029965e-08 -1.41100186e+02  3.11891536e+00 
 2.51188643e-02  9.88527902e-08 -1.40100221e+02  3.11825319e+00 
 2.58523484e-02  1.10914182e-07 -1.39100258e+02  3.11757169e+00 
 2.66072506e-02  1.24447197e-07 -1.38100298e+02  3.11687028e+00 
 2.73841963e-02  1.39631384e-07 -1.37100339e+02  3.11614840e+00 
 2.81838293e-02  1.56668196e-07 -1.36100383e+02  3.11540544e+00 
 2.90068120e-02  1.75783664e-07 -1.35100430e+02  3.11464079e+00 
 2.98538262e-02  1.97231394e-07 -1.34100479e+02  3.11385381e+00 
 3.07255737e-02  2.21295932e-07 -1.33100531e+02  3.11304385e+00 
 3.16227766e-02  2.48296536e-07 -1.32100587e+02  3.11221024e+00 
 3.25461783e-02  2.78591414e-07 -1.31100645e+02  3.11135230e+00 
 3.34965439e-02  3.12582471e-07 -1.30100708e+02  3.11046931e+00 
 3.44746607e-02  3.50720643e-07 -1.29100773e+02  3.10956053e+00 
 3.54813389e-02  3.93511875e-07 -1.28100843e+02  3.10862523e+00 
 3.65174127e-02  4.41523831e-07 -1.27100917e+02  3.10766262e+00 
 3.75837404e-02  4.95393424e-07 -1.26100995e+02  3.10667190e+00 
 3.86812055e-02  5.55835260e-07 -1.25101078e+02  3.10565226e+00 
 3.98107171e-02  6.23651117e-07 -1.24101166e+02  3.10460285e+00 
 4.09732110e-02  6.99740571e-07 -1.23101259e+02  3.10352280e+00 
 4.21696503e-02  7.85112931e-07 -1.22101357e+02  3.10241123e+00 
 4.34010264e-02  8.80900617e-07 -1.21101462e+02  3.10126720e+00 
 4.46683592e-02  9.88374174e-07 -1.20101572e+02  3.10008977e+00 
 4.59726989e-02  1.10895912e-06 -1.19101689e+02  3.09887797e+00 
 4.73151259e-02  1.24425483e-06 -1.18101813e+02  3.09763080e+00 
 4.86967525e-02  1.39605578e-06 -1.17101945e+02  3.09634722e+00 
 5.01187234e-02  1.56637526e-06 -1.16102084e+02  3.09502616e+00 
 5.15822165e-02  1.75747213e-06 -1.15102231e+02  3.09366655e+00 
 5.30884444e-02  1.97188072e-06 -1.14102387e+02  3.09226725e+00 
 5.46386550e-02  2.21244445e-06 -1.13102553e+02  3.09082710e+00 
 5.62341325e-02  2.48235345e-06 -1.12102728e+02  3.08934491e+00 
 5.78761988e-02  2.78518689e-06 -1.11102913e+02  3.08781947e+00 
 5.95662144e-02  3.12496040e-06 -1.10103110e+02  3.08624949e+00 
 6.13055792e-02  3.50617922e-06 -1.09103318e+02  3.08463370e+00 
 6.30957344e-02  3.93389794e-06 -1.08103538e+02  3.08297074e+00 
 6.49381632e-02  4.41378741e-06 -1.07103772e+02  3.08125925e+00 
 6.68343918e-02  4.95220990e-06 -1.06104019e+02  3.07949782e+00 
 6.87859912e-02  5.55630329e-06 -1.05104281e+02  3.07768497e+00 
 7.07945784e-02  6.23407564e-06 -1.04104559e+02  3.07581922e+00 
 7.28618175e-02  6.99451118e-06 -1.03104853e+02  3.07389903e+00 
 7.49894209e-02  7.84768929e-06 -1.02105164e+02  3.07192281e+00 
 7.71791516e-02  8.80491786e-06 -1.01105494e+02  3.06988892e+00 
 7.94328235e-02  9.87888298e-06 -1.00105843e+02  3.06779568e+00 
 8.17523038e-02  1.10838168e-05 -9.91062132e+01  3.06564137e+00 
 8.41395142e-02  1.24356858e-05 -9.81066052e+01  3.06342421e+00 
 8.65964323e-02  1.39524020e-05 -9.71070204e+01  3.06114237e+00 
 8.91250938e-02  1.56540600e-05 -9.61074601e+01  3.05879396e+00 
 9.17275935e-02  1.75632023e-05 -9.51079259e+01  3.05637704e+00 
 9.44060876e-02  1.97051177e-05 -9.41084193e+01  3.05388962e+00 
 9.71627952e-02  2.21081755e-05 -9.31089419e+01  3.05132966e+00 
 1.00000000e-01  2.48042001e-05 -9.21094955e+01  3.04869503e+00 
 1.02920053e-01  2.78288916e-05 -9.11100818e+01  3.04598357e+00 
 1.05925373e-01  3.12222975e-05 -9.01107029e+01  3.04319305e+00 
 1.09018449e-01  3.50293410e-05 -8.91113607e+01  3.04032115e+00 
 1.12201845e-01  3.93004143e-05 -8.81120574e+01  3.03736553e+00 
 1.15478198e-01  4.40920436e-05 -8.71127954e+01  3.03432373e+00 
 1.18850223e-01  4.94676346e-05 -8.61135771e+01  3.03119327e+00 
 1.22320712e-01  5.54983084e-05 -8.51144051e+01  3.02797157e+00 
 1.25892541e-01  6.22638394e-05 -8.41152821e+01  3.02465597e+00 
 1.29568670e-01  6.98537063e-05 -8.31162109e+01  3.02124375e+00 
 1.33352143e-01  7.83682703e-05 -8.21171948e+01  3.01773210e+00 
 1.37246096e-01  8.79200969e-05 -8.11182368e+01  3.01411815e+00 
 1.41253754e-01  9.86354367e-05 -8.01193406e+01  3.01039893e+00 
 1.45378439e-01  1.10655886e-04 -7.91205096e+01  3.00657139e+00 
 1.49623566e-01  1.24140248e-04 -7.81217478e+01  3.00263238e+00 
 1.53992653e-01  1.39266621e-04 -7.71230592e+01  2.99857868e+00 
 1.58489319e-01  1.56234732e-04 -7.61244483e+01  2.99440697e+00 
 1.63117291e-01  1.75268564e-04 -7.51259194e+01  2.99011384e+00 
 1.67880402e-01  1.96619288e-04 -7.41274776e+01  2.98569578e+00 
 1.72782598e-01  2.20568558e-04 -7.31291279e+01  2.98114918e+00 
 1.77827941e-01  2.47432195e-04 -7.21308758e+01  2.97647033e+00 
 1.83020611e-01  2.77564326e-04 -7.11327271e+01  2.97165540e+00 
 1.88364909e-01  3.11362005e-04 -7.01346877e+01  2.96670048e+00 
 1.93865264e-01  3.49270406e-04 -6.91367642e+01  2.96160154e+00 
 1.99526231e-01  3.91788629e-04 -6.81389635e+01  2.95635443e+00 
 2.05352503e-01  4.39476207e-04 -6.71412926e+01  2.95095488e+00 
 2.11348904e-01  4.92960396e-04 -6.61437594e+01  2.94539852e+00 
 2.17520403e-01  5.52944328e-04 -6.51463719e+01  2.93968084e+00 
 2.23872114e-01  6.20216150e-04 -6.41491386e+01  2.93379721e+00 
 2.30409298e-01  6.95659256e-04 -6.31520686e+01  2.92774289e+00 
 2.37137371e-01  7.80263725e-04 -6.21551717e+01  2.92151299e+00 
 2.44061907e-01  8.75139144e-04 -6.11584578e+01  2.91510248e+00 
 2.51188643e-01  9.81528941e-04 -6.01619378e+01  2.90850621e+00 
 2.58523484e-01  1.10082642e-03 -5.91656231e+01  2.90171889e+00 
 2.66072506e-01  1.23459273e-03 -5.81695257e+01  2.89473507e+00 
 2.73841963e-01  1.38457691e-03 -5.71736583e+01  2.88754917e+00 
 2.81838293e-01  1.55273833e-03 -5.61780345e+01  2.88015546e+00 
 2.90068120e-01  1.74127183e-03 -5.51826685e+01  2.87254805e+00 
 2.98538262e-01  1.95263570e-03 -5.41875755e+01  2.86472089e+00 
 3.07255737e-01  2.18958311e-03 -5.31927713e+01  2.85666778e+00 
 3.16227766e-01  2.45519706e-03 -5.21982729e+01  2.84838236e+00 
 3.25461783e-01  2.75292952e-03 -5.12040981e+01  2.83985809e+00 
 3.34965439e-01  3.08664515e-03 -5.02102659e+01  2.83108828e+00 
 3.44746607e-01  3.46067001e-03 -4.92167962e+01  2.82206606e+00 
 3.54813389e-01  3.87984605e-03 -4.82237101e+01  2.81278438e+00 
 3.65174127e-01  4.34959177e-03 -4.72310300e+01  2.80323602e+00 
 3.75837404e-01  4.87596999e-03 -4.62387795e+01  2.79341359e+00 
 3.86812055e-01  5.46576333e-03 -4.52469835e+01  2.78330950e+00 
 3.98107171e-01  6.12655838e-03 -4.42556685e+01  2.77291599e+00 
 4.09732110e-01  6.86683942e-03 -4.32648622e+01  2.76222510e+00 
 4.21696503e-01  7.69609280e-03 -4.22745941e+01  2.75122869e+00 
 4.34010264e-01  8.62492314e-03 -4.12848953e+01  2.73991843e+00 
 4.46683592e-01  9.66518258e-03 -4.02957988e+01  2.72828580e+00 
 4.59726989e-01  1.08301145e-02 -3.93073390e+01  2.71632208e+00 
 4.73151259e-01  1.21345132e-02 -3.83195529e+01  2.70401836e+00 
 4.86967525e-01  1.35949013e-02 -3.73324789e+01  2.69136553e+00 
 5.01187234e-01  1.52297266e-02 -3.63461579e+01  2.67835430e+00 
 5.15822165e-01  1.70595807e-02 -3.53606329e+01  2.66497518e+00 
 5.30884444e-01  1.91074408e-02 -3.43759496e+01  2.65121848e+00 
 5.46386550e-01  2.13989378e-02 -3.33921557e+01  2.63707431e+00 
 5.62341325e-01  2.39626537e-02 -3.24093018e+01  2.62253261e+00 
 5.78761988e-01  2.68304490e-02 -3.14274412e+01  2.60758313e+00 
 5.95662144e-01  3.00378258e-02 -3.04466301e+01  2.59221543e+00 
 6.13055792e-01  3.36243282e-02 -2.94669277e+01  2.57641887e+00 
 6.30957344e-01  3.76339832e-02 -2.84883963e+01  2.56018268e+00 
 6.49381632e-01  4.21157873e-02 -2.75111015e+01  2.54349587e+00 
 6.68343918e-01  4.71242415e-02 -2.65351125e+01  2.52634733e+00 
 6.87859912e-01  5.27199390e-02 -2.55605020e+01  2.50872577e+00 
 7.07945784e-01  5.89702103e-02 -2.45873465e+01  2.49061976e+00 
 7.28618175e-01  6.59498307e-02 -2.36157263e+01  2.47201774e+00 
 7.49894209e-01  7.37417938e-02 -2.26457260e+01  2.45290801e+00 
 7.71791516e-01  8.24381571e-02 -2.16774345e+01  2.43327877e+00 
 7.94328235e-01  9.21409644e-02 -2.07109449e+01  2.41311812e+00 
 8.17523038e-01  1.02963250e-01 -1.97463552e+01  2.39241408e+00 
 8.41395142e-01  1.15030128e-01 -1.87837679e+01  2.37115460e+00 
 8.65964323e-01  1.28479980e-01 -1.78232908e+01  2.34932759e+00 
 8.91250938e-01  1.43465729e-01 -1.68650366e+01  2.32692093e+00 
 9.17275935e-01  1.60156226e-01 -1.59091235e+01  2.30392249e+00 
 9.44060876e-01  1.78737736e-01 -1.49556750e+01  2.28032019e+00 
 9.71627952e-01  1.99415532e-01 -1.40048204e+01  2.25610197e+00 
 1.00000000e+00  2.22415607e-01 -1.30566948e+01  2.23125587e+00 
 1.02920053e+00  2.47986493e-01 -1.21114395e+01  2.20577004e+00 
 1.05925373e+00  2.76401202e-01 -1.11692015e+01  2.17963275e+00 
 1.09018449e+00  3.07959269e-01 -1.02301344e+01  2.15283247e+00 
 1.12201845e+00  3.42988918e-01 -9.29439824e+00  2.12535790e+00 
 1.15478198e+00  3.81849325e-01 -8.36215944e+00  2.09719797e+00 
 1.18850223e+00  4.24932983e-01 -7.43359117e+00  2.06834193e+00 
 1.22320712e+00  4.72668148e-01 -6.50887326e+00  2.03877939e+00 
 1.25892541e+00  5.25521370e-01 -5.58819239e+00  2.00850034e+00 
 1.29568670e+00  5.84000068e-01 -4.67174205e+00  1.97749520e+00 
 1.33352143e+00  6.48655149e-01 -3.75972261e+00  1.94575494e+00 
 1.37246096e+00  7.20083625e-01 -2.85234130e+00  1.91327104e+00 
 1.41253754e+00  7.98931216e-01 -1.94981219e+00  1.88003561e+00 
 1.45378439e+00  8.85894886e-01 -1.05235611e+00  1.84604144e+00 
 1.49623566e+00  9.81725276e-01 -1.60200543e-01  1.81128204e+00 
 1.53992653e+00  1.08722899e+00  7.26420470e-01  1.77575171e+00 
 1.58489319e+00  1.20327066e+00  1.60726654e+00  1.73944562e+00 
 1.63117291e+00  1.33077476e+00  2.48209112e+00  1.70235987e+00 
 1.67880402e+00  1.47072708e+00  3.35064179e+00  1.66449152e+00 
 1.72782598e+00  1.62417577e+00  4.21266053e+00  1.62583872e+00 
 1.77827941e+00  1.79223190e+00  5.06788408e+00  1.58640071e+00 
 1.83020611e+00  1.97606952e+00  5.91604437e+00  1.54617792e+00 
 1.88364909e+00  2.17692490e+00  6.75686893e+00  1.50517203e+00 
 1.93865264e+00  2.39609520e+00  7.59008138e+00  1.46338604e+00 
 1.99526231e+00  2.63493619e+00  8.41540205e+00  1.42082429e+00 
 2.05352503e+00  2.89485907e+00  9.23254851e+00  1.37749256e+00 
 2.11348904e+00  3.17732627e+00  1.00412363e+01  1.33339811e+00 
 2.17520403e+00  3.48384619e+00  1.08411795e+01  1.28854974e+00 
 2.23872114e+00  3.81596673e+00  1.16320916e+01  1.24295779e+00 
 2.30409298e+00  4.17526762e+00  1.24136864e+01  1.19663425e+00 
 2.37137371e+00  4.56335152e+00  1.31856785e+01  1.14959272e+00 
 2.44061907e+00  4.98183375e+00  1.39477846e+01  1.10184851e+00 
 2.51188643e+00  5.43233082e+00  1.46997242e+01  1.05341860e+00 
 2.58523484e+00  5.91644763e+00  1.54412205e+01  1.00432170e+00 
 2.66072506e+00  6.43576348e+00  1.61720015e+01  9.54578227e-01 
 2.73841963e+00  6.99181699e+00  1.68918010e+01  9.04210302e-01 
 2.81838293e+00  7.58608988e+00  1.76003597e+01  8.53241761e-01 
 2.90068120e+00  8.21999003e+00  1.82974258e+01  8.01698114e-01 
 2.98538262e+00  8.89483377e+00  1.89827567e+01  7.49606524e-01 
 3.07255737e+00  9.61182771e+00  1.96561196e+01  6.96995765e-01 
 3.16227766e+00  1.03720504e+01  2.03172923e+01  6.43896172e-01 
 3.25461783e+00  1.11764339e+01  2.09660651e+01  5.90339585e-01 
 3.34965439e+00  1.20257459e+01  2.16022405e+01  5.36359273e-01 
 3.44746607e+00  1.29205727e+01  2.22256353e+01  4.81989866e-01 
 3.54813389e+00  1.38613023e+01  2.28360807e+01  4.27267257e-01 
 3.65174127e+00  1.48481101e+01  2.34334236e+01  3.72228514e-01 
 3.75837404e+00  1.58809454e+01  2.40175270e+01  3.16911768e-01 
 3.86812055e+00  1.69595202e+01  2.45882712e+01  2.61356103e-01 
 3.98107171e+00  1.80833004e+01  2.51455539e+01  2.05601436e-01 
 4.09732110e+00  1.92514991e+01  2.56892911e+01  1.49688391e-01 
 4.21696503e+00  2.04630736e+01  2.62194173e+01  9.36581602e-02 
 4.34010264e+00  2.17167241e+01  2.67358863e+01  3.75523753e-02 
 4.46683592e+00  2.30108970e+01  2.72386710e+01 -1.85870400e-02 
 4.59726989e+00  2.43437900e+01  2.77277639e+01 -7.47180116e-02 
 4.73151259e+00  2.57133609e+01  2.82031769e+01 -1.30798461e-01 
 4.86967525e+00  2.71173399e+01  2.86649417e+01 -1.86786453e-01 
 5.01187234e+00  2.85532441e+01  2.91131092e+01 -2.42640337e-01 
 5.15822165e+00  3.00183952e+01  2.95477494e+01 -2.98318896e-01 
 5.30884444e+00  3.15099396e+01  2.99689514e+01 -3.53781486e-01 
 5.46386550e+00  3.30248703e+01  3.03768224e+01 -4.08988169e-01 
 5.62341325e+00  3.45600514e+01  3.07714876e+01 -4.63899852e-01 
 5.78761988e+00  3.61122434e+01  3.11530894e+01 -5.18478404e-01 
 5.95662144e+00  3.76781294e+01  3.15217867e+01 -5.72686785e-01 
 6.13055792e+00  3.92543425e+01  3.18777542e+01 -6.26489148e-01 
 6.30957344e+00  4.08374926e+01  3.22211814e+01 -6.79850944e-01 
 6.49381632e+00  4.24241936e+01  3.25522719e+01 -7.32739019e-01 
