 frequency       onoise_spectrum inoise_spectrum
 1.00000000e+01  4.08976974e-04  5.90310404e-06 
 1.02920053e+01  3.98468420e-04  5.65467798e-06 
 1.05925373e+01  3.87952960e-04  5.41697777e-06 
 1.09018449e+01  3.77455809e-04  5.18953246e-06 
 1.12201845e+01  3.67000608e-04  4.97189281e-06 
 1.15478198e+01  3.56609386e-04  4.76363012e-06 
 1.18850223e+01  3.46302545e-04  4.56433528e-06 
 1.22320712e+01  3.36098855e-04  4.37361774e-06 
 1.25892541e+01  3.26015466e-04  4.19110464e-06 
 1.29568670e+01  3.16067939e-04  4.01643992e-06 
 1.33352143e+01  3.06270273e-04  3.84928351e-06 
 1.37246096e+01  2.96634960e-04  3.68931059e-06 
 1.41253754e+01  2.87173033e-04  3.53621081e-06 
 1.45378439e+01  2.77894129e-04  3.38968763e-06 
 1.49623566e+01  2.68806554e-04  3.24945769e-06 
 1.53992653e+01  2.59917351e-04  3.11525014e-06 
 1.58489319e+01  2.51232375e-04  2.98680609e-06 
 1.63117291e+01  2.42756363e-04  2.86387803e-06 
 1.67880402e+01  2.34493012e-04  2.74622934e-06 
 1.72782598e+01  2.26445049e-04  2.63363375e-06 
 1.77827941e+01  2.18614308e-04  2.52587487e-06 
 1.83020611e+01  2.11001799e-04  2.42274575e-06 
 1.88364909e+01  2.03607780e-04  2.32404846e-06 
 1.93865264e+01  1.96431822e-04  2.22959364e-06 
 1.99526231e+01  1.89472875e-04  2.13920014e-06 
 2.05352503e+01  1.82729330e-04  2.05269467e-06 
 2.11348904e+01  1.76199079e-04  1.96991139e-06 
 2.17520403e+01  1.69879565e-04  1.89069163e-06 
 2.23872114e+01  1.63767843e-04  1.81488352e-06 
 2.30409298e+01  1.57860619e-04  1.74234173e-06 
 2.37137371e+01  1.52154302e-04  1.67292715e-06 
 2.44061907e+01  1.46645046e-04  1.60650663e-06 
 2.51188643e+01  1.41328785e-04  1.54295269e-06 
 2.58523484e+01  1.36201272e-04  1.48214331e-06 
 2.66072506e+01  1.31258113e-04  1.42396162e-06 
 2.73841963e+01  1.26494792e-04  1.36829576e-06 
 2.81838293e+01  1.21906707e-04  1.31503858e-06 
 2.90068120e+01  1.17489186e-04  1.26408749e-06 
 2.98538262e+01  1.13237513e-04  1.21534421e-06 
 3.07255737e+01  1.09146953e-04  1.16871461e-06 
 3.16227766e+01  1.05212761e-04  1.12410852e-06 
 3.25461783e+01  1.01430204e-04  1.08143957e-06 
 3.34965439e+01  9.77945768e-05  1.04062499e-06 
 3.44746607e+01  9.43012085e-05  1.00158549e-06 
 3.54813389e+01  9.09454789e-05  9.64245058e-07 
 3.65174127e+01  8.77228258e-05  9.28530884e-07 
 3.75837404e+01  8.46287539e-05  8.94373161e-07 
 3.86812055e+01  8.16588418e-05  8.61704985e-07 
 3.98107171e+01  7.88087482e-05  8.30462217e-07 
 4.09732110e+01  7.60742168e-05  8.00583369e-07 
 4.21696503e+01  7.34510809e-05  7.72009486e-07 
 4.34010264e+01  7.09352662e-05  7.44684037e-07 
 4.46683592e+01  6.85227943e-05  7.18552815e-07 
 4.59726989e+01  6.62097839e-05  6.93563833e-07 
 4.73151259e+01  6.39924532e-05  6.69667229e-07 
 4.86967525e+01  6.18671200e-05  6.46815184e-07 
 5.01187234e+01  5.98302031e-05  6.24961825e-07 
 5.15822165e+01  5.78782221e-05  6.04063153e-07 
 5.30884444e+01  5.60077972e-05  5.84076961e-07 
 5.46386550e+01  5.42156491e-05  5.64962762e-07 
 5.62341325e+01  5.24985978e-05  5.46681718e-07 
 5.78761988e+01  5.08535623e-05  5.29196573e-07 
 5.95662144e+01  4.92775593e-05  5.12471592e-07 
 6.13055792e+01  4.77677018e-05  4.96472500e-07 
 6.30957344e+01  4.63211979e-05  4.81166423e-07 
 6.49381632e+01  4.49353495e-05  4.66521837e-07 
 6.68343918e+01  4.36075503e-05  4.52508513e-07 
 6.87859912e+01  4.23352849e-05  4.39097472e-07 
 7.07945784e+01  4.11161264e-05  4.26260934e-07 
 7.28618175e+01  3.99477351e-05  4.13972277e-07 
 7.49894209e+01  3.88278565e-05  4.02205993e-07 
 7.71791516e+01  3.77543198e-05  3.90937647e-07 
 7.94328235e+01  3.67250358e-05  3.80143839e-07 
 8.17523038e+01  3.57379952e-05  3.69802168e-07 
 8.41395142e+01  3.47912667e-05  3.59891194e-07 
 8.65964323e+01  3.38829951e-05  3.50390407e-07 
 8.91250938e+01  3.30113996e-05  3.41280190e-07 
 9.17275935e+01  3.21747715e-05  3.32541792e-07 
 9.44060876e+01  3.13714730e-05  3.24157294e-07 
 9.71627952e+01  3.05999346e-05  3.16109580e-07 
 1.00000000e+02  2.98586535e-05  3.08382310e-07 
 1.02920053e+02  2.91461917e-05  3.00959890e-07 
 1.05925373e+02  2.84611743e-05  2.93827446e-07 
 1.09018449e+02  2.78022870e-05  2.86970798e-07 
 1.12201845e+02  2.71682750e-05  2.80376433e-07 
 1.15478198e+02  2.65579404e-05  2.74031482e-07 
 1.18850223e+02  2.59701407e-05  2.67923692e-07 
 1.22320712e+02  2.54037869e-05  2.62041408e-07 
 1.25892541e+02  2.48578415e-05  2.56373542e-07 
 1.29568670e+02  2.43313166e-05  2.50909558e-07 
 1.33352143e+02  2.38232725e-05  2.45639443e-07 
 1.37246096e+02  2.33328153e-05  2.40553690e-07 
 1.41253754e+02  2.28590956e-05  2.35643276e-07 
 1.45378439e+02  2.24013062e-05  2.30899638e-07 
 1.49623566e+02  2.19586811e-05  2.26314658e-07 
 1.53992653e+02  2.15304932e-05  2.21880638e-07 
 1.58489319e+02  2.11160528e-05  2.17590287e-07 
 1.63117291e+02  2.07147059e-05  2.13436697e-07 
 1.67880402e+02  2.03258331e-05  2.09413328e-07 
 1.72782598e+02  1.99488471e-05  2.05513990e-07 
 1.77827941e+02  1.95831921e-05  2.01732825e-07 
 1.83020611e+02  1.92283419e-05  1.98064294e-07 
 1.88364909e+02  1.88837984e-05  1.94503157e-07 
 1.93865264e+02  1.85490905e-05  1.91044462e-07 
 1.99526231e+02  1.82237725e-05  1.87683526e-07 
 2.05352503e+02  1.79074230e-05  1.84415924e-07 
 2.11348904e+02  1.75996436e-05  1.81237477e-07 
 2.17520403e+02  1.73000576e-05  1.78144235e-07 
 2.23872114e+02  1.70083092e-05  1.75132466e-07 
 2.30409298e+02  1.67240618e-05  1.72198648e-07 
 2.37137371e+02  1.64469975e-05  1.69339450e-07 
 2.44061907e+02  1.61768160e-05  1.66551730e-07 
 2.51188643e+02  1.59132333e-05  1.63832517e-07 
 2.58523484e+02  1.56559812e-05  1.61179007e-07 
 2.66072506e+02  1.54048061e-05  1.58588550e-07 
 2.73841963e+02  1.51594685e-05  1.56058643e-07 
 2.81838293e+02  1.49197418e-05  1.53586921e-07 
 2.90068120e+02  1.46854119e-05  1.51171149e-07 
 2.98538262e+02  1.44562764e-05  1.48809214e-07 
 3.07255737e+02  1.42321437e-05  1.46499118e-07 
 3.16227766e+02  1.40128326e-05  1.44238974e-07 
 3.25461783e+02  1.37981717e-05  1.42026993e-07 
 3.34965439e+02  1.35879989e-05  1.39861486e-07 
 3.44746607e+02  1.33821603e-05  1.37740852e-07 
 3.54813389e+02  1.31805104e-05  1.35663577e-07 
 3.65174127e+02  1.29829114e-05  1.33628224e-07 
 3.75837404e+02  1.27892324e-05  1.31633432e-07 
 3.86812055e+02  1.25993493e-05  1.29677914e-07 
 3.98107171e+02  1.24131446e-05  1.27760443e-07 
 4.09732110e+02  1.22305065e-05  1.25879861e-07 
 4.21696503e+02  1.20513287e-05  1.24035063e-07 
 4.34010264e+02  1.18755105e-05  1.22225003e-07 
 4.46683592e+02  1.17029558e-05  1.20448685e-07 
 4.59726989e+02  1.15335733e-05  1.18705160e-07 
 4.73151259e+02  1.13672762e-05  1.16993528e-07 
 4.86967525e+02  1.12039815e-05  1.15312929e-07 
 5.01187234e+02  1.10436102e-05  1.13662546e-07 
 5.15822165e+02  1.08860871e-05  1.12041598e-07 
 5.30884444e+02  1.07313401e-05  1.10449340e-07 
 5.46386550e+02  1.05793006e-05  1.08885061e-07 
 5.62341325e+02  1.04299027e-05  1.07348080e-07 
 5.78761988e+02  1.02830835e-05  1.05837748e-07 
 5.95662144e+02  1.01387829e-05  1.04353442e-07 
 6.13055792e+02  9.99694308e-06  1.02894567e-07 
 6.30957344e+02  9.85750871e-06  1.01460552e-07 
 6.49381632e+02  9.72042664e-06  1.00050848e-07 
 6.68343918e+02  9.58564584e-06  9.86649288e-08 
 6.87859912e+02  9.45311723e-06  9.73022902e-08 
 7.07945784e+02  9.32279360e-06  9.59624459e-08 
 7.28618175e+02  9.19462950e-06  9.46449287e-08 
 7.49894209e+02  9.06858114e-06  9.33492884e-08 
 7.71791516e+02  8.94460626e-06  9.20750914e-08 
 7.94328235e+02  8.82266410e-06  9.08219197e-08 
 8.17523038e+02  8.70271529e-06  8.95893697e-08 
 8.41395142e+02  8.58472175e-06  8.83770518e-08 
 8.65964323e+02  8.46864666e-06  8.71845893e-08 
 8.91250938e+02  8.35445437e-06  8.60116182e-08 
 9.17275935e+02  8.24211034e-06  8.48577859e-08 
 9.44060876e+02  8.13158106e-06  8.37227511e-08 
 9.71627952e+02  8.02283405e-06  8.26061830e-08 
 1.00000000e+03  7.91583772e-06  8.15077609e-08 
 1.02920053e+03  7.81056142e-06  8.04271734e-08 
 1.05925373e+03  7.70697531e-06  7.93641183e-08 
 1.09018449e+03  7.60505036e-06  7.83183019e-08 
 1.12201845e+03  7.50475830e-06  7.72894387e-08 
 1.15478198e+03  7.40607158e-06  7.62772510e-08 
 1.18850223e+03  7.30896331e-06  7.52814682e-08 
 1.22320712e+03  7.21340728e-06  7.43018272e-08 
 1.25892541e+03  7.11937788e-06  7.33380713e-08 
 1.29568670e+03  7.02685007e-06  7.23899504e-08 
 1.33352143e+03  6.93579938e-06  7.14572205e-08 
 1.37246096e+03  6.84620186e-06  7.05396432e-08 
 1.41253754e+03  6.75803405e-06  6.96369861e-08 
 1.45378439e+03  6.67127299e-06  6.87490220e-08 
 1.49623566e+03  6.58589614e-06  6.78755287e-08 
 1.53992653e+03  6.50188141e-06  6.70162892e-08 
 1.58489319e+03  6.41920708e-06  6.61710908e-08 
 1.63117291e+03  6.33785186e-06  6.53397259e-08 
 1.67880402e+03  6.25779479e-06  6.45219907e-08 
 1.72782598e+03  6.17901526e-06  6.37176859e-08 
 1.77827941e+03  6.10149300e-06  6.29266161e-08 
 1.83020611e+03  6.02520805e-06  6.21485899e-08 
 1.88364909e+03  5.95014071e-06  6.13834194e-08 
 1.93865264e+03  5.87627158e-06  6.06309204e-08 
 1.99526231e+03  5.80358152e-06  5.98909122e-08 
 2.05352503e+03  5.73205162e-06  5.91632173e-08 
 2.11348904e+03  5.66166320e-06  5.84476616e-08 
 2.17520403e+03  5.59239781e-06  5.77440739e-08 
 2.23872114e+03  5.52423716e-06  5.70522860e-08 
 2.30409298e+03  5.45716317e-06  5.63721328e-08 
 2.37137371e+03  5.39115794e-06  5.57034518e-08 
 2.44061907e+03  5.32620368e-06  5.50460832e-08 
 2.51188643e+03  5.26228280e-06  5.43998699e-08 
 2.58523484e+03  5.19937778e-06  5.37646573e-08 
 2.66072506e+03  5.13747126e-06  5.31402933e-08 
 2.73841963e+03  5.07654595e-06  5.25266280e-08 
 2.81838293e+03  5.01658467e-06  5.19235139e-08 
 2.90068120e+03  4.95757029e-06  5.13308058e-08 
 2.98538262e+03  4.89948575e-06  5.07483607e-08 
 3.07255737e+03  4.84231405e-06  5.01760373e-08 
 3.16227766e+03  4.78603820e-06  4.96136969e-08 
 3.25461783e+03  4.73064125e-06  4.90612024e-08 
 3.34965439e+03  4.67610625e-06  4.85184186e-08 
 3.44746607e+03  4.62241623e-06  4.79852123e-08 
 3.54813389e+03  4.56955421e-06  4.74614522e-08 
 3.65174127e+03  4.51750319e-06  4.69470085e-08 
 3.75837404e+03  4.46624609e-06  4.64417534e-08 
 3.86812055e+03  4.41576578e-06  4.59455604e-08 
 3.98107171e+03  4.36604506e-06  4.54583049e-08 
 4.09732110e+03  4.31706664e-06  4.49798638e-08 
 4.21696503e+03  4.26881310e-06  4.45101156e-08 
 4.34010264e+03  4.22126693e-06  4.40489402e-08 
 4.46683592e+03  4.17441046e-06  4.35962189e-08 
 4.59726989e+03  4.12822589e-06  4.31518346e-08 
 4.73151259e+03  4.08269524e-06  4.27156715e-08 
 4.86967525e+03  4.03780036e-06  4.22876150e-08 
 5.01187234e+03  3.99352290e-06  4.18675522e-08 
 5.15822165e+03  3.94984431e-06  4.14553712e-08 
 5.30884444e+03  3.90674580e-06  4.10509614e-08 
 5.46386550e+03  3.86420838e-06  4.06542136e-08 
 5.62341325e+03  3.82221276e-06  4.02650196e-08 
 5.78761988e+03  3.78073942e-06  3.98832725e-08 
 5.95662144e+03  3.73976857e-06  3.95088667e-08 
 6.13055792e+03  3.69928009e-06  3.91416975e-08 
 6.30957344e+03  3.65925359e-06  3.87816615e-08 
 6.49381632e+03  3.61966837e-06  3.84286565e-08 
 6.68343918e+03  3.58050340e-06  3.80825811e-08 
 6.87859912e+03  3.54173731e-06  3.77433353e-08 
 7.07945784e+03  3.50334840e-06  3.74108201e-08 
 7.28618175e+03  3.46531464e-06  3.70849374e-08 
 7.49894209e+03  3.42761362e-06  3.67655903e-08 
 7.71791516e+03  3.39022262e-06  3.64526829e-08 
 7.94328235e+03  3.35311853e-06  3.61461204e-08 
 8.17523038e+03  3.31627793e-06  3.58458090e-08 
 8.41395142e+03  3.27967704e-06  3.55516558e-08 
 8.65964323e+03  3.24329173e-06  3.52635693e-08 
 8.91250938e+03  3.20709759e-06  3.49814585e-08 
 9.17275935e+03  3.17106988e-06  3.47052338e-08 
 9.44060876e+03  3.13518357e-06  3.44348066e-08 
 9.71627952e+03  3.09941340e-06  3.41700892e-08 
 1.00000000e+04  3.06373386e-06  3.39109951e-08 
 1.02920053e+04  3.02811926e-06  3.36574386e-08 
 1.05925373e+04  2.99254374e-06  3.34093353e-08 
 1.09018449e+04  2.95698136e-06  3.31666017e-08 
 1.12201845e+04  2.92140613e-06  3.29291555e-08 
 1.15478198e+04  2.88579205e-06  3.26969154e-08 
 1.18850223e+04  2.85011324e-06  3.24698013e-08 
 1.22320712e+04  2.81434394e-06  3.22477341e-08 
 1.25892541e+04  2.77845867e-06  3.20306359e-08 
 1.29568670e+04  2.74243227e-06  3.18184299e-08 
 1.33352143e+04  2.70624003e-06  3.16110406e-08 
 1.37246096e+04  2.66985777e-06  3.14083936e-08 
 1.41253754e+04  2.63326201e-06  3.12104157e-08 
 1.45378439e+04  2.59643005e-06  3.10170351e-08 
 1.49623566e+04  2.55934012e-06  3.08281812e-08 
 1.53992653e+04  2.52197156e-06  3.06437846e-08 
 1.58489319e+04  2.48430489e-06  3.04637774e-08 
 1.63117291e+04  2.44632206e-06  3.02880931e-08 
 1.67880402e+04  2.40800654e-06  3.01166664e-08 
 1.72782598e+04  2.36934352e-06  2.99494338e-08 
 1.77827941e+04  2.33032010e-06  2.97863329e-08 
 1.83020611e+04  2.29092543e-06  2.96273031e-08 
 1.88364909e+04  2.25115088e-06  2.94722855e-08 
 1.93865264e+04  2.21099024e-06  2.93212224e-08 
 1.99526231e+04  2.17043987e-06  2.91740584e-08 
