 frequency       onoise_spectrum inoise_spectrum
 1.00000000e+00  8.51784214e-04  1.25371062e-05 
 1.02920053e+00  8.23550456e-04  1.20207304e-05 
 1.05925373e+00  7.95982060e-04  1.15265724e-05 
 1.09018449e+00  7.69092492e-04  1.10536758e-05 
 1.12201845e+00  7.42891991e-04  1.06011268e-05 
 1.15478198e+00  7.17387809e-04  1.01680514e-05 
 1.18850223e+00  6.92584439e-04  9.75361421e-06 
 1.22320712e+00  6.68483842e-04  9.35701618e-06 
 1.25892541e+00  6.45085673e-04  8.97749325e-06 
 1.29568670e+00  6.22387487e-04  8.61431459e-06 
 1.33352143e+00  6.00384945e-04  8.26678112e-06 
 1.37246096e+00  5.79072005e-04  7.93422406e-06 
 1.41253754e+00  5.58441110e-04  7.61600358e-06 
 1.45378439e+00  5.38483355e-04  7.31150743e-06 
 1.49623566e+00  5.19188651e-04  7.02014977e-06 
 1.53992653e+00  5.00545878e-04  6.74136990e-06 
 1.58489319e+00  4.82543025e-04  6.47463121e-06 
 1.63117291e+00  4.65167318e-04  6.21942003e-06 
 1.67880402e+00  4.48405344e-04  5.97524466e-06 
 1.72782598e+00  4.32243157e-04  5.74163433e-06 
 1.77827941e+00  4.16666387e-04  5.51813834e-06 
 1.83020611e+00  4.01660324e-04  5.30432510e-06 
 1.88364909e+00  3.87210006e-04  5.09978130e-06 
 1.93865264e+00  3.73300297e-04  4.90411112e-06 
 1.99526231e+00  3.59915950e-04  4.71693544e-06 
 2.05352503e+00  3.47041676e-04  4.53789109e-06 
 2.11348904e+00  3.34662192e-04  4.36663015e-06 
 2.17520403e+00  3.22762273e-04  4.20281930e-06 
 2.23872114e+00  3.11326796e-04  4.04613916e-06 
 2.30409298e+00  3.00340776e-04  3.89628367e-06 
 2.37137371e+00  2.89789402e-04  3.75295950e-06 
 2.44061907e+00  2.79658063e-04  3.61588553e-06 
 2.51188643e+00  2.69932375e-04  3.48479229e-06 
 2.58523484e+00  2.60598203e-04  3.35942143e-06 
 2.66072506e+00  2.51641674e-04  3.23952531e-06 
 2.73841963e+00  2.43049201e-04  3.12486645e-06 
 2.81838293e+00  2.34807485e-04  3.01521716e-06 
 2.90068120e+00  2.26903535e-04  2.91035907e-06 
 2.98538262e+00  2.19324668e-04  2.81008280e-06 
 3.07255737e+00  2.12058519e-04  2.71418750e-06 
 3.16227766e+00  2.05093045e-04  2.62248054e-06 
 3.25461783e+00  1.98416527e-04  2.53477716e-06 
 3.34965439e+00  1.92017570e-04  2.45090013e-06 
 3.44746607e+00  1.85885106e-04  2.37067947e-06 
 3.54813389e+00  1.80008395e-04  2.29395212e-06 
 3.65174127e+00  1.74377015e-04  2.22056166e-06 
 3.75837404e+00  1.68980871e-04  2.15035809e-06 
 3.86812055e+00  1.63810184e-04  2.08319753e-06 
 3.98107171e+00  1.58855489e-04  2.01894199e-06 
 4.09732110e+00  1.54107635e-04  1.95745916e-06 
 4.21696503e+00  1.49557775e-04  1.89862219e-06 
 4.34010264e+00  1.45197366e-04  1.84230944e-06 
 4.46683592e+00  1.41018160e-04  1.78840436e-06 
 4.59726989e+00  1.37012204e-04  1.73679524e-06 
 4.73151259e+00  1.33171828e-04  1.68737504e-06 
 4.86967525e+00  1.29489647e-04  1.64004127e-06 
 5.01187234e+00  1.25958547e-04  1.59469576e-06 
 5.15822165e+00  1.22571686e-04  1.55124455e-06 
 5.30884444e+00  1.19322486e-04  1.50959769e-06 
 5.46386550e+00  1.16204624e-04  1.46966918e-06 
 5.62341325e+00  1.13212031e-04  1.43137675e-06 
 5.78761988e+00  1.10338880e-04  1.39464177e-06 
 5.95662144e+00  1.07579588e-04  1.35938910e-06 
 6.13055792e+00  1.04928800e-04  1.32554698e-06 
 6.30957344e+00  1.02381389e-04  1.29304691e-06 
 6.49381632e+00  9.99324494e-05  1.26182351e-06 
 6.68343918e+00  9.75772881e-05  1.23181444e-06 
 6.87859912e+00  9.53114198e-05  1.20296026e-06 
 7.07945784e+00  9.31305603e-05  1.17520434e-06 
 7.28618175e+00  9.10306201e-05  1.14849274e-06 
 7.49894209e+00  8.90076980e-05  1.12277412e-06 
 7.71791516e+00  8.70580749e-05  1.09799963e-06 
 7.94328235e+00  8.51782073e-05  1.07412282e-06 
 8.17523038e+00  8.33647214e-05  1.05109953e-06 
 8.41395142e+00  8.16144065e-05  1.02888782e-06 
 8.65964323e+00  7.99242091e-05  1.00744786e-06 
 8.91250938e+00  7.82912265e-05  9.86741839e-07 
 9.17275935e+00  7.67127015e-05  9.66733885e-07 
 9.44060876e+00  7.51860156e-05  9.47389987e-07 
 9.71627952e+00  7.37086841e-05  9.28677902e-07 
 1.00000000e+01  7.22783496e-05  9.10567078e-07 
 1.02920053e+01  7.08927771e-05  8.93028579e-07 
 1.05925373e+01  6.95498481e-05  8.76035005e-07 
 1.09018449e+01  6.82475557e-05  8.59560424e-07 
 1.12201845e+01  6.69839991e-05  8.43580296e-07 
 1.15478198e+01  6.57573787e-05  8.28071410e-07 
 1.18850223e+01  6.45659913e-05  8.13011814e-07 
 1.22320712e+01  6.34082254e-05  7.98380755e-07 
 1.25892541e+01  6.22825566e-05  7.84158612e-07 
 1.29568670e+01  6.11875432e-05  7.70326847e-07 
 1.33352143e+01  6.01218219e-05  7.56867937e-07 
 1.37246096e+01  5.90841039e-05  7.43765329e-07 
 1.41253754e+01  5.80731710e-05  7.31003385e-07 
 1.45378439e+01  5.70878717e-05  7.18567330e-07 
 1.49623566e+01  5.61271174e-05  7.06443210e-07 
 1.53992653e+01  5.51898797e-05  6.94617841e-07 
 1.58489319e+01  5.42751864e-05  6.83078769e-07 
 1.63117291e+01  5.33821186e-05  6.71814231e-07 
 1.67880402e+01  5.25098077e-05  6.60813110e-07 
 1.72782598e+01  5.16574329e-05  6.50064905e-07 
 1.77827941e+01  5.08242178e-05  6.39559691e-07 
 1.83020611e+01  5.00094286e-05  6.29288085e-07 
 1.88364909e+01  4.92123710e-05  6.19241219e-07 
 1.93865264e+01  4.84323885e-05  6.09410706e-07 
 1.99526231e+01  4.76688595e-05  5.99788612e-07 
 2.05352503e+01  4.69211961e-05  5.90367434e-07 
 2.11348904e+01  4.61888414e-05  5.81140065e-07 
 2.17520403e+01  4.54712680e-05  5.72099781e-07 
 2.23872114e+01  4.47679761e-05  5.63240210e-07 
 2.30409298e+01  4.40784923e-05  5.54555315e-07 
 2.37137371e+01  4.34023672e-05  5.46039375e-07 
 2.44061907e+01  4.27391747e-05  5.37686961e-07 
 2.51188643e+01  4.20885104e-05  5.29492923e-07 
 2.58523484e+01  4.14499902e-05  5.21452371e-07 
 2.66072506e+01  4.08232489e-05  5.13560662e-07 
 2.73841963e+01  4.02079397e-05  5.05813380e-07 
 2.81838293e+01  3.96037324e-05  4.98206328e-07 
 2.90068120e+01  3.90103128e-05  4.90735510e-07 
 2.98538262e+01  3.84273816e-05  4.83397123e-07 
 3.07255737e+01  3.78546536e-05  4.76187543e-07 
 3.16227766e+01  3.72918567e-05  4.69103313e-07 
 3.25461783e+01  3.67387313e-05  4.62141137e-07 
 3.34965439e+01  3.61950295e-05  4.55297868e-07 
 3.44746607e+01  3.56605143e-05  4.48570497e-07 
 3.54813389e+01  3.51349592e-05  4.41956150e-07 
 3.65174127e+01  3.46181472e-05  4.35452075e-07 
 3.75837404e+01  3.41098706e-05  4.29055637e-07 
 3.86812055e+01  3.36099303e-05  4.22764313e-07 
 3.98107171e+01  3.31181353e-05  4.16575682e-07 
 4.09732110e+01  3.26343022e-05  4.10487420e-07 
 4.21696503e+01  3.21582550e-05  4.04497296e-07 
 4.34010264e+01  3.16898244e-05  3.98603165e-07 
 4.46683592e+01  3.12288473e-05  3.92802965e-07 
 4.59726989e+01  3.07751671e-05  3.87094710e-07 
 4.73151259e+01  3.03286324e-05  3.81476488e-07 
 4.86967525e+01  2.98890977e-05  3.75946453e-07 
 5.01187234e+01  2.94564222e-05  3.70502827e-07 
 5.15822165e+01  2.90304702e-05  3.65143892e-07 
 5.30884444e+01  2.86111104e-05  3.59867989e-07 
 5.46386550e+01  2.81982159e-05  3.54673513e-07 
 5.62341325e+01  2.77916638e-05  3.49558912e-07 
 5.78761988e+01  2.73913353e-05  3.44522682e-07 
 5.95662144e+01  2.69971150e-05  3.39563368e-07 
 6.13055792e+01  2.66088912e-05  3.34679556e-07 
 6.30957344e+01  2.62265555e-05  3.29869878e-07 
 6.49381632e+01  2.58500024e-05  3.25133004e-07 
 6.68343918e+01  2.54791298e-05  3.20467641e-07 
 6.87859912e+01  2.51138381e-05  3.15872536e-07 
 7.07945784e+01  2.47540307e-05  3.11346466e-07 
 7.28618175e+01  2.43996134e-05  3.06888243e-07 
 7.49894209e+01  2.40504945e-05  3.02496712e-07 
 7.71791516e+01  2.37065846e-05  2.98170745e-07 
 7.94328235e+01  2.33677968e-05  2.93909245e-07 
 8.17523038e+01  2.30340461e-05  2.89711139e-07 
 8.41395142e+01  2.27052497e-05  2.85575384e-07 
 8.65964323e+01  2.23813266e-05  2.81500960e-07 
 8.91250938e+01  2.20621980e-05  2.77486872e-07 
 9.17275935e+01  2.17477865e-05  2.73532146e-07 
 9.44060876e+01  2.14380169e-05  2.69635832e-07 
 9.71627952e+01  2.11328154e-05  2.65797000e-07 
 1.00000000e+02  2.08321097e-05  2.62014741e-07 
 1.02920053e+02  2.05358293e-05  2.58288167e-07 
 1.05925373e+02  2.02439051e-05  2.54616405e-07 
 1.09018449e+02  1.99562694e-05  2.50998605e-07 
 1.12201845e+02  1.96728559e-05  2.47433930e-07 
 1.15478198e+02  1.93935997e-05  2.43921563e-07 
 1.18850223e+02  1.91184370e-05  2.40460702e-07 
 1.22320712e+02  1.88473056e-05  2.37050561e-07 
 1.25892541e+02  1.85801441e-05  2.33690370e-07 
 1.29568670e+02  1.83168926e-05  2.30379372e-07 
 1.33352143e+02  1.80574921e-05  2.27116827e-07 
 1.37246096e+02  1.78018848e-05  2.23902007e-07 
 1.41253754e+02  1.75500140e-05  2.20734197e-07 
 1.45378439e+02  1.73018240e-05  2.17612697e-07 
 1.49623566e+02  1.70572600e-05  2.14536817e-07 
 1.53992653e+02  1.68162684e-05  2.11505882e-07 
 1.58489319e+02  1.65787963e-05  2.08519228e-07 
 1.63117291e+02  1.63447918e-05  2.05576202e-07 
 1.67880402e+02  1.61142041e-05  2.02676162e-07 
 1.72782598e+02  1.58869831e-05  1.99818480e-07 
 1.77827941e+02  1.56630794e-05  1.97002536e-07 
 1.83020611e+02  1.54424447e-05  1.94227720e-07 
 1.88364909e+02  1.52250314e-05  1.91493435e-07 
 1.93865264e+02  1.50107927e-05  1.88799091e-07 
 1.99526231e+02  1.47996826e-05  1.86144111e-07 
 2.05352503e+02  1.45916558e-05  1.83527924e-07 
 2.11348904e+02  1.43866678e-05  1.80949972e-07 
 2.17520403e+02  1.41846747e-05  1.78409702e-07 
 2.23872114e+02  1.39856335e-05  1.75906573e-07 
 2.30409298e+02  1.37895017e-05  1.73440053e-07 
 2.37137371e+02  1.35962376e-05  1.71009616e-07 
 2.44061907e+02  1.34058002e-05  1.68614747e-07 
 2.51188643e+02  1.32181489e-05  1.66254936e-07 
 2.58523484e+02  1.30332440e-05  1.63929685e-07 
 2.66072506e+02  1.28510463e-05  1.61638501e-07 
 2.73841963e+02  1.26715173e-05  1.59380900e-07 
 2.81838293e+02  1.24946190e-05  1.57156404e-07 
 2.90068120e+02  1.23203140e-05  1.54964544e-07 
 2.98538262e+02  1.21485656e-05  1.52804859e-07 
 3.07255737e+02  1.19793374e-05  1.50676892e-07 
 3.16227766e+02  1.18125938e-05  1.48580197e-07 
 3.25461783e+02  1.16482996e-05  1.46514332e-07 
 3.34965439e+02  1.14864203e-05  1.44478862e-07 
 3.44746607e+02  1.13269218e-05  1.42473360e-07 
 3.54813389e+02  1.11697704e-05  1.40497404e-07 
 3.65174127e+02  1.10149332e-05  1.38550580e-07 
 3.75837404e+02  1.08623775e-05  1.36632480e-07 
 3.86812055e+02  1.07120714e-05  1.34742700e-07 
 3.98107171e+02  1.05639831e-05  1.32880846e-07 
 4.09732110e+02  1.04180815e-05  1.31046525e-07 
 4.21696503e+02  1.02743361e-05  1.29239355e-07 
 4.34010264e+02  1.01327165e-05  1.27458957e-07 
 4.46683592e+02  9.99319299e-06  1.25704957e-07 
 4.59726989e+02  9.85573630e-06  1.23976988e-07 
 4.73151259e+02  9.72031748e-06  1.22274690e-07 
 4.86967525e+02  9.58690809e-06  1.20597704e-07 
 5.01187234e+02  9.45548005e-06  1.18945681e-07 
 5.15822165e+02  9.32600573e-06  1.17318274e-07 
 5.30884444e+02  9.19845788e-06  1.15715143e-07 
 5.46386550e+02  9.07280967e-06  1.14135952e-07 
 5.62341325e+02  8.94903462e-06  1.12580371e-07 
 5.78761988e+02  8.82710668e-06  1.11048073e-07 
 5.95662144e+02  8.70700013e-06  1.09538739e-07 
 6.13055792e+02  8.58868966e-06  1.08052052e-07 
 6.30957344e+02  8.47215029e-06  1.06587701e-07 
 6.49381632e+02  8.35735742e-06  1.05145378e-07 
 6.68343918e+02  8.24428678e-06  1.03724782e-07 
 6.87859912e+02  8.13291447e-06  1.02325616e-07 
 7.07945784e+02  8.02321691e-06  1.00947585e-07 
 7.28618175e+02  7.91517086e-06  9.95904001e-08 
 7.49894209e+02  7.80875338e-06  9.82537773e-08 
 7.71791516e+02  7.70394190e-06  9.69374358e-08 
 7.94328235e+02  7.60071412e-06  9.56410991e-08 
 8.17523038e+02  7.49904807e-06  9.43644948e-08 
 8.41395142e+02  7.39892208e-06  9.31073544e-08 
 8.65964323e+02  7.30031477e-06  9.18694137e-08 
 8.91250938e+02  7.20320506e-06  9.06504118e-08 
 9.17275935e+02  7.10757215e-06  8.94500923e-08 
 9.44060876e+02  7.01339552e-06  8.82682019e-08 
 9.71627952e+02  6.92065493e-06  8.71044913e-08 
 1.00000000e+03  6.82933040e-06  8.59587150e-08 
 1.02920053e+03  6.73940223e-06  8.48306307e-08 
 1.05925373e+03  6.65085094e-06  8.37199999e-08 
 1.09018449e+03  6.56365735e-06  8.26265875e-08 
 1.12201845e+03  6.47780249e-06  8.15501617e-08 
 1.15478198e+03  6.39326765e-06  8.04904941e-08 
 1.18850223e+03  6.31003434e-06  7.94473597e-08 
 1.22320712e+03  6.22808431e-06  7.84205366e-08 
 1.25892541e+03  6.14739954e-06  7.74098061e-08 
 1.29568670e+03  6.06796220e-06  7.64149528e-08 
 1.33352143e+03  5.98975471e-06  7.54357642e-08 
 1.37246096e+03  5.91275966e-06  7.44720309e-08 
 1.41253754e+03  5.83695987e-06  7.35235464e-08 
 1.45378439e+03  5.76233833e-06  7.25901074e-08 
 1.49623566e+03  5.68887825e-06  7.16715131e-08 
 1.53992653e+03  5.61656298e-06  7.07675658e-08 
 1.58489319e+03  5.54537609e-06  6.98780704e-08 
 1.63117291e+03  5.47530129e-06  6.90028348e-08 
 1.67880402e+03  5.40632247e-06  6.81416693e-08 
 1.72782598e+03  5.33842367e-06  6.72943870e-08 
 1.77827941e+03  5.27158909e-06  6.64608035e-08 
 1.83020611e+03  5.20580308e-06  6.56407370e-08 
 1.88364909e+03  5.14105011e-06  6.48340083e-08 
 1.93865264e+03  5.07731479e-06  6.40404404e-08 
 1.99526231e+03  5.01458188e-06  6.32598589e-08 
 2.05352503e+03  4.95283622e-06  6.24920917e-08 
 2.11348904e+03  4.89206278e-06  6.17369692e-08 
 2.17520403e+03  4.83224665e-06  6.09943236e-08 
 2.23872114e+03  4.77337300e-06  6.02639900e-08 
 2.30409298e+03  4.71542708e-06  5.95458051e-08 
 2.37137371e+03  4.65839425e-06  5.88396081e-08 
 2.44061907e+03  4.60225993e-06  5.81452403e-08 
 2.51188643e+03  4.54700962e-06  5.74625448e-08 
 2.58523484e+03  4.49262885e-06  5.67913669e-08 
 2.66072506e+03  4.43910323e-06  5.61315541e-08 
 2.73841963e+03  4.38641840e-06  5.54829554e-08 
 2.81838293e+03  4.33456005e-06  5.48454222e-08 
 2.90068120e+03  4.28351388e-06  5.42188074e-08 
 2.98538262e+03  4.23326560e-06  5.36029658e-08 
 3.07255737e+03  4.18380094e-06  5.29977542e-08 
 3.16227766e+03  4.13510564e-06  5.24030310e-08 
 3.25461783e+03  4.08716541e-06  5.18186564e-08 
 3.34965439e+03  4.03996595e-06  5.12444921e-08 
 3.44746607e+03  3.99349291e-06  5.06804018e-08 
 3.54813389e+03  3.94773192e-06  5.01262506e-08 
 3.65174127e+03  3.90266856e-06  4.95819052e-08 
 3.75837404e+03  3.85828832e-06  4.90472339e-08 
 3.86812055e+03  3.81457666e-06  4.85221065e-08 
 3.98107171e+03  3.77151893e-06  4.80063944e-08 
 4.09732110e+03  3.72910037e-06  4.74999704e-08 
 4.21696503e+03  3.68730615e-06  4.70027088e-08 
 4.34010264e+03  3.64612131e-06  4.65144851e-08 
 4.46683592e+03  3.60553073e-06  4.60351765e-08 
 4.59726989e+03  3.56551920e-06  4.55646614e-08 
 4.73151259e+03  3.52607132e-06  4.51028196e-08 
 4.86967525e+03  3.48717155e-06  4.46495320e-08 
 5.01187234e+03  3.44880414e-06  4.42046810e-08 
 5.15822165e+03  3.41095318e-06  4.37681504e-08 
 5.30884444e+03  3.37360257e-06  4.33398250e-08 
 5.46386550e+03  3.33673596e-06  4.29195908e-08 
 5.62341325e+03  3.30033680e-06  4.25073352e-08 
 5.78761988e+03  3.26438831e-06  4.21029467e-08 
 5.95662144e+03  3.22887347e-06  4.17063150e-08 
 6.13055792e+03  3.19377497e-06  4.13173309e-08 
 6.30957344e+03  3.15907528e-06  4.09358864e-08 
 6.49381632e+03  3.12475657e-06  4.05618747e-08 
 6.68343918e+03  3.09080073e-06  4.01951900e-08 
 6.87859912e+03  3.05718938e-06  3.98357276e-08 
 7.07945784e+03  3.02390381e-06  3.94833840e-08 
 7.28618175e+03  2.99092505e-06  3.91380568e-08 
 7.49894209e+03  2.95823381e-06  3.87996447e-08 
 7.71791516e+03  2.92581048e-06  3.84680473e-08 
 7.94328235e+03  2.89363519e-06  3.81431655e-08 
 8.17523038e+03  2.86168772e-06  3.78249012e-08 
 8.41395142e+03  2.82994759e-06  3.75131573e-08 
 8.65964323e+03  2.79839402e-06  3.72078379e-08 
 8.91250938e+03  2.76700596e-06  3.69088482e-08 
 9.17275935e+03  2.73576210e-06  3.66160943e-08 
 9.44060876e+03  2.70464087e-06  3.63294837e-08 
 9.71627952e+03  2.67362049e-06  3.60489246e-08 
 1.00000000e+04  2.64267901e-06  3.57743266e-08 
 1.02920053e+04  2.61179427e-06  3.55056005e-08 
 1.05925373e+04  2.58094402e-06  3.52426578e-08 
 1.09018449e+04  2.55010592e-06  3.49854117e-08 
 1.12201845e+04  2.51925759e-06  3.47337760e-08 
 1.15478198e+04  2.48837665e-06  3.44876662e-08 
 1.18850223e+04  2.45744083e-06  3.42469986e-08 
 1.22320712e+04  2.42642798e-06  3.40116910e-08 
 1.25892541e+04  2.39531618e-06  3.37816622e-08 
 1.29568670e+04  2.36408380e-06  3.35568324e-08 
 1.33352143e+04  2.33270963e-06  3.33371231e-08 
 1.37246096e+04  2.30117290e-06  3.31224570e-08 
 1.41253754e+04  2.26945346e-06  3.29127584e-08 
 1.45378439e+04  2.23753185e-06  3.27079527e-08 
 1.49623566e+04  2.20538943e-06  3.25079669e-08 
 1.53992653e+04  2.17300851e-06  3.23127293e-08 
 1.58489319e+04  2.14037245e-06  3.21221700e-08 
 1.63117291e+04  2.10746584e-06  3.19362203e-08 
 1.67880402e+04  2.07427462e-06  3.17548132e-08 
 1.72782598e+04  2.04078622e-06  3.15778835e-08 
 1.77827941e+04  2.00698972e-06  3.14053674e-08 
 1.83020611e+04  1.97287598e-06  3.12372031e-08 
 1.88364909e+04  1.93843782e-06  3.10733305e-08 
 1.93865264e+04  1.90367014e-06  3.09136912e-08 
 1.99526231e+04  1.86857009e-06  3.07582290e-08 
 2.05352503e+04  1.83313716e-06  3.06068896e-08 
 2.11348904e+04  1.79737337e-06  3.04596206e-08 
 2.17520403e+04  1.76128337e-06  3.03163720e-08 
 2.23872114e+04  1.72487451e-06  3.01770958e-08 
 2.30409298e+04  1.68815700e-06  3.00417464e-08 
 2.37137371e+04  1.65114394e-06  2.99102806e-08 
 2.44061907e+04  1.61385138e-06  2.97826578e-08 
 2.51188643e+04  1.57629838e-06  2.96588399e-08 
 2.58523484e+04  1.53850702e-06  2.95387915e-08 
 2.66072506e+04  1.50050236e-06  2.94224800e-08 
 2.73841963e+04  1.46231243e-06  2.93098759e-08 
 2.81838293e+04  1.42396814e-06  2.92009527e-08 
 2.90068120e+04  1.38550322e-06  2.90956871e-08 
 2.98538262e+04  1.34695402e-06  2.89940592e-08 
 3.07255737e+04  1.30835946e-06  2.88960528e-08 
 3.16227766e+04  1.26976073e-06  2.88016553e-08 
 3.25461783e+04  1.23120117e-06  2.87108579e-08 
 3.34965439e+04  1.19272597e-06  2.86236560e-08 
 3.44746607e+04  1.15438191e-06  2.85400495e-08 
 3.54813389e+04  1.11621711e-06  2.84600424e-08 
 3.65174127e+04  1.07828064e-06  2.83836440e-08 
 3.75837404e+04  1.04062229e-06  2.83108683e-08 
 3.86812055e+04  1.00329213e-06  2.82417346e-08 
 3.98107171e+04  9.66340238e-07  2.81762682e-08 
 4.09732110e+04  9.29816288e-07  2.81144999e-08 
 4.21696503e+04  8.93769224e-07  2.80564670e-08 
 4.34010264e+04  8.58246893e-07  2.80022136e-08 
 4.46683592e+04  8.23295700e-07  2.79517906e-08 
 4.59726989e+04  7.88960278e-07  2.79052567e-08 
 4.73151259e+04  7.55283170e-07  2.78626782e-08 
 4.86967525e+04  7.22304533e-07  2.78241303e-08 
 5.01187234e+04  6.90061869e-07  2.77896969e-08 
 5.15822165e+04  6.58589785e-07  2.77594717e-08 
 5.30884444e+04  6.27919781e-07  2.77335584e-08 
 5.46386550e+04  5.98080073e-07  2.77120718e-08 
 5.62341325e+04  5.69095450e-07  2.76951384e-08 
 5.78761988e+04  5.40987173e-07  2.76828969e-08 
 5.95662144e+04  5.13772902e-07  2.76754995e-08 
 6.13055792e+04  4.87466668e-07  2.76731126e-08 
 6.30957344e+04  4.62078878e-07  2.76759178e-08 
 6.49381632e+04  4.37616354e-07  2.76841129e-08 
 6.68343918e+04  4.14082405e-07  2.76979133e-08 
 6.87859912e+04  3.91476934e-07  2.77175531e-08 
 7.07945784e+04  3.69796567e-07  2.77432863e-08 
 7.28618175e+04  3.49034813e-07  2.77753888e-08 
 7.49894209e+04  3.29182242e-07  2.78141592e-08 
 7.71791516e+04  3.10226682e-07  2.78599213e-08 
 7.94328235e+04  2.92153431e-07  2.79130252e-08 
 8.17523038e+04  2.74945481e-07  2.79738499e-08 
 8.41395142e+04  2.58583748e-07  2.80428049e-08 
 8.65964323e+04  2.43047308e-07  2.81203330e-08 
 8.91250938e+04  2.28313632e-07  2.82069120e-08 
 9.17275935e+04  2.14358821e-07  2.83030582e-08 
 9.44060876e+04  2.01157834e-07  2.84093285e-08 
 9.71627952e+04  1.88684711e-07  2.85263238e-08 
 1.00000000e+05  1.76912783e-07  2.86546918e-08 
 1.02920053e+05  1.65814881e-07  2.87951309e-08 
 1.05925373e+05  1.55363516e-07  2.89483934e-08 
 1.09018449e+05  1.45531062e-07  2.91152894e-08 
 1.12201845e+05  1.36289916e-07  2.92966910e-08 
 1.15478198e+05  1.27612643e-07  2.94935365e-08 
 1.18850223e+05  1.19472112e-07  2.97068349e-08 
