 frequency       gain_vv         gain_db         phase_deg      
 1.00000000e-03  1.68860479e-12 -2.35449440e+02  3.13879762e+00 
 1.02920053e-03  1.89464546e-12 -2.34449441e+02  3.13871601e+00 
 1.05925373e-03  2.12582685e-12 -2.33449442e+02  3.13863201e+00 
 1.09018449e-03  2.38521657e-12 -2.32449444e+02  3.13854555e+00 
 1.12201845e-03  2.67625654e-12 -2.31449445e+02  3.13845658e+00 
 1.15478198e-03  3.00280868e-12 -2.30449447e+02  3.13836500e+00 
 1.18850223e-03  3.36920610e-12 -2.29449448e+02  3.13827075e+00 
 1.22320712e-03  3.78031064e-12 -2.28449450e+02  3.13817375e+00 
 1.25892541e-03  4.24157738e-12 -2.27449452e+02  3.13807392e+00 
 1.29568670e-03  4.75912700e-12 -2.26449454e+02  3.13797117e+00 
 1.33352143e-03  5.33982701e-12 -2.25449456e+02  3.13786542e+00 
 1.37246096e-03  5.99138290e-12 -2.24449458e+02  3.13775659e+00 
 1.41253754e-03  6.72244034e-12 -2.23449461e+02  3.13764457e+00 
 1.45378439e-03  7.54269993e-12 -2.22449463e+02  3.13752929e+00 
 1.49623566e-03  8.46304592e-12 -2.21449466e+02  3.13741063e+00 
 1.53992653e-03  9.49569061e-12 -2.20449469e+02  3.13728852e+00 
 1.58489319e-03  1.06543364e-11 -2.19449472e+02  3.13716284e+00 
 1.63117291e-03  1.19543577e-11 -2.18449475e+02  3.13703348e+00 
 1.67880402e-03  1.34130048e-11 -2.17449478e+02  3.13690035e+00 
 1.72782598e-03  1.50496327e-11 -2.16449482e+02  3.13676334e+00 
 1.77827941e-03  1.68859583e-11 -2.15449486e+02  3.13662232e+00 
 1.83020611e-03  1.89463481e-11 -2.14449490e+02  3.13647718e+00 
 1.88364909e-03  2.12581419e-11 -2.13449494e+02  3.13632781e+00 
 1.93865264e-03  2.38520152e-11 -2.12449498e+02  3.13617408e+00 
 1.99526231e-03  2.67623866e-11 -2.11449503e+02  3.13601585e+00 
 2.05352503e-03  3.00278742e-11 -2.10449508e+02  3.13585301e+00 
 2.11348904e-03  3.36918084e-11 -2.09449514e+02  3.13568541e+00 
 2.17520403e-03  3.78028062e-11 -2.08449519e+02  3.13551292e+00 
 2.23872114e-03  4.24154170e-11 -2.07449525e+02  3.13533539e+00 
 2.30409298e-03  4.75908459e-11 -2.06449532e+02  3.13515268e+00 
 2.37137371e-03  5.33977661e-11 -2.05449538e+02  3.13496463e+00 
 2.44061907e-03  5.99132300e-11 -2.04449545e+02  3.13477109e+00 
 2.51188643e-03  6.72236914e-11 -2.03449553e+02  3.13457190e+00 
 2.58523484e-03  7.54261531e-11 -2.02449561e+02  3.13436689e+00 
 2.66072506e-03  8.46294535e-11 -2.01449569e+02  3.13415590e+00 
 2.73841963e-03  9.49557108e-11 -2.00449578e+02  3.13393875e+00 
 2.81838293e-03  1.06541944e-10 -1.99449588e+02  3.13371525e+00 
 2.90068120e-03  1.19541889e-10 -1.98449598e+02  3.13348523e+00 
 2.98538262e-03  1.34128041e-10 -1.97449608e+02  3.13324850e+00 
 3.07255737e-03  1.50493942e-10 -1.96449620e+02  3.13300485e+00 
 3.16227766e-03  1.68856749e-10 -1.95449632e+02  3.13275409e+00 
 3.25461783e-03  1.89460113e-10 -1.94449644e+02  3.13249600e+00 
 3.34965439e-03  2.12577415e-10 -1.93449658e+02  3.13223038e+00 
 3.44746607e-03  2.38515394e-10 -1.92449672e+02  3.13195701e+00 
 3.54813389e-03  2.67618211e-10 -1.91449687e+02  3.13167565e+00 
 3.65174127e-03  3.00272021e-10 -1.90449703e+02  3.13138608e+00 
 3.75837404e-03  3.36910095e-10 -1.89449720e+02  3.13108805e+00 
 3.86812055e-03  3.78018568e-10 -1.88449737e+02  3.13078132e+00 
 3.98107171e-03  4.24142886e-10 -1.87449756e+02  3.13046564e+00 
 4.09732110e-03  4.75895048e-10 -1.86449776e+02  3.13014074e+00 
 4.21696503e-03  5.33961723e-10 -1.85449797e+02  3.12980635e+00 
 4.34010264e-03  5.99113357e-10 -1.84449820e+02  3.12946220e+00 
 4.46683592e-03  6.72214401e-10 -1.83449844e+02  3.12910800e+00 
 4.59726989e-03  7.54234775e-10 -1.82449869e+02  3.12874346e+00 
 4.73151259e-03  8.46262735e-10 -1.81449896e+02  3.12836828e+00 
 4.86967525e-03  9.49519314e-10 -1.80449924e+02  3.12798214e+00 
 5.01187234e-03  1.06537452e-09 -1.79449954e+02  3.12758473e+00 
 5.15822165e-03  1.19536550e-09 -1.78449986e+02  3.12717572e+00 
 5.30884444e-03  1.34121696e-09 -1.77450019e+02  3.12675477e+00 
 5.46386550e-03  1.50486402e-09 -1.76450055e+02  3.12632153e+00 
 5.62341325e-03  1.68847787e-09 -1.75450093e+02  3.12587564e+00 
 5.78761988e-03  1.89449461e-09 -1.74450133e+02  3.12541673e+00 
 5.95662144e-03  2.12564756e-09 -1.73450175e+02  3.12494443e+00 
 6.13055792e-03  2.38500348e-09 -1.72450220e+02  3.12445833e+00 
 6.30957344e-03  2.67600329e-09 -1.71450267e+02  3.12395805e+00 
 6.49381632e-03  3.00250770e-09 -1.70450317e+02  3.12344317e+00 
 6.68343918e-03  3.36884838e-09 -1.69450371e+02  3.12291325e+00 
 6.87859912e-03  3.77988550e-09 -1.68450427e+02  3.12236787e+00 
 7.07945784e-03  4.24107210e-09 -1.67450487e+02  3.12180656e+00 
 7.28618175e-03  4.75852648e-09 -1.66450550e+02  3.12122887e+00 
 7.49894209e-03  5.33911331e-09 -1.65450617e+02  3.12063432e+00 
 7.71791516e-03  5.99053468e-09 -1.64450688e+02  3.12002242e+00 
 7.94328235e-03  6.72143223e-09 -1.63450764e+02  3.11939265e+00 
 8.17523038e-03  7.54150181e-09 -1.62450843e+02  3.11874451e+00 
 8.41395142e-03  8.46162197e-09 -1.61450928e+02  3.11807745e+00 
 8.65964323e-03  9.49399827e-09 -1.60451017e+02  3.11739092e+00 
 8.91250938e-03  1.06523251e-08 -1.59451112e+02  3.11668435e+00 
 9.17275935e-03  1.19519673e-08 -1.58451212e+02  3.11595717e+00 
 9.44060876e-03  1.34101638e-08 -1.57451318e+02  3.11520876e+00 
 9.71627952e-03  1.50462563e-08 -1.56451431e+02  3.11443852e+00 
 1.00000000e-02  1.68819455e-08 -1.55451550e+02  3.11364580e+00 
 1.02920053e-02  1.89415790e-08 -1.54451676e+02  3.11282995e+00 
 1.05925373e-02  2.12524739e-08 -1.53451810e+02  3.11199030e+00 
 1.09018449e-02  2.38452789e-08 -1.52451952e+02  3.11112614e+00 
 1.12201845e-02  2.67543807e-08 -1.51452102e+02  3.11023678e+00 
 1.15478198e-02  3.00183595e-08 -1.50452261e+02  3.10932148e+00 
 1.18850223e-02  3.36805005e-08 -1.49452429e+02  3.10837947e+00 
 1.22320712e-02  3.77893671e-08 -1.48452608e+02  3.10740998e+00 
 1.25892541e-02  4.23994451e-08 -1.47452797e+02  3.10641222e+00 
 1.29568670e-02  4.75718640e-08 -1.46452997e+02  3.10538536e+00 
 1.33352143e-02  5.33752069e-08 -1.45453209e+02  3.10432855e+00 
 1.37246096e-02  5.98864194e-08 -1.44453433e+02  3.10324093e+00 
 1.41253754e-02  6.71918283e-08 -1.43453671e+02  3.10212159e+00 
 1.45378439e-02  7.53882853e-08 -1.42453923e+02  3.10096961e+00 
 1.49623566e-02  8.45844496e-08 -1.41454189e+02  3.09978405e+00 
 1.53992653e-02  9.49022262e-08 -1.40454472e+02  3.09856393e+00 
 1.58489319e-02  1.06478380e-07 -1.39454771e+02  3.09730825e+00 
 1.63117291e-02  1.19466348e-07 -1.38455088e+02  3.09601597e+00 
 1.67880402e-02  1.34038266e-07 -1.37455424e+02  3.09468603e+00 
 1.72782598e-02  1.50387250e-07 -1.36455780e+02  3.09331734e+00 
 1.77827941e-02  1.68729953e-07 -1.35456156e+02  3.09190877e+00 
 1.83020611e-02  1.89309426e-07 -1.34456555e+02  3.09045917e+00 
 1.88364909e-02  2.12398337e-07 -1.33456978e+02  3.08896735e+00 
 1.93865264e-02  2.38302576e-07 -1.32457425e+02  3.08743209e+00 
 1.99526231e-02  2.67365297e-07 -1.31457899e+02  3.08585212e+00 
 2.05352503e-02  2.99971458e-07 -1.30458401e+02  3.08422616e+00 
 2.11348904e-02  3.36552909e-07 -1.29458933e+02  3.08255287e+00 
 2.17520403e-02  3.77594092e-07 -1.28459496e+02  3.08083089e+00 
 2.23872114e-02  4.23638447e-07 -1.27460093e+02  3.07905880e+00 
 2.30409298e-02  4.75295587e-07 -1.26460724e+02  3.07723517e+00 
 2.37137371e-02  5.33249343e-07 -1.25461393e+02  3.07535850e+00 
 2.44061907e-02  5.98266796e-07 -1.24462102e+02  3.07342726e+00 
 2.51188643e-02  6.71208392e-07 -1.23462852e+02  3.07143988e+00 
 2.58523484e-02  7.53039294e-07 -1.22463647e+02  3.06939475e+00 
 2.66072506e-02  8.44842109e-07 -1.21464489e+02  3.06729021e+00 
 2.73841963e-02  9.47831156e-07 -1.20465380e+02  3.06512454e+00 
 2.81838293e-02  1.06336847e-06 -1.19466324e+02  3.06289599e+00 
 2.90068120e-02  1.19298172e-06 -1.18467324e+02  3.06060276e+00 
 2.98538262e-02  1.33838434e-06 -1.17468383e+02  3.05824299e+00 
 3.07255737e-02  1.50149809e-06 -1.16469504e+02  3.05581478e+00 
 3.16227766e-02  1.68447827e-06 -1.15470692e+02  3.05331618e+00 
 3.25461783e-02  1.88974212e-06 -1.14471949e+02  3.05074516e+00 
 3.34965439e-02  2.12000051e-06 -1.13473281e+02  3.04809968e+00 
 3.44746607e-02  2.37829358e-06 -1.12474691e+02  3.04537760e+00 
 3.54813389e-02  2.66803061e-06 -1.11476184e+02  3.04257675e+00 
 3.65174127e-02  2.99303472e-06 -1.10477765e+02  3.03969489e+00 
 3.75837404e-02  3.35759298e-06 -1.09479439e+02  3.03672973e+00 
 3.86812055e-02  3.76651251e-06 -1.08481212e+02  3.03367891e+00 
 3.98107171e-02  4.22518342e-06 -1.07483089e+02  3.03054000e+00 
 4.09732110e-02  4.73964921e-06 -1.06485076e+02  3.02731054e+00 
 4.21696503e-02  5.31668577e-06 -1.05487180e+02  3.02398797e+00 
 4.34010264e-02  5.96388972e-06 -1.04489408e+02  3.02056969e+00 
 4.46683592e-02  6.68977752e-06 -1.03491767e+02  3.01705300e+00 
 4.59726989e-02  7.50389630e-06 -1.02494264e+02  3.01343516e+00 
 4.73151259e-02  8.41694809e-06 -1.01496907e+02  3.00971337e+00 
 4.86967525e-02  9.44092887e-06 -1.00499705e+02  3.00588473e+00 
 5.01187234e-02  1.05892842e-05 -9.95026679e+01  3.00194627e+00 
 5.15822165e-02  1.18770836e-05 -9.85058038e+01  2.99789499e+00 
 5.30884444e-02  1.33212152e-05 -9.75091231e+01  2.99372776e+00 
 5.46386550e-02  1.49406047e-05 -9.65126365e+01  2.98944143e+00 
 5.62341325e-02  1.67564589e-05 -9.55163551e+01  2.98503272e+00 
 5.78761988e-02  1.87925390e-05 -9.45202908e+01  2.98049833e+00 
 5.95662144e-02  2.10754667e-05 -9.35244560e+01  2.97583484e+00 
 6.13055792e-02  2.36350654e-05 -9.25288638e+01  2.97103878e+00 
 6.30957344e-02  2.65047424e-05 -9.15335282e+01  2.96610660e+00 
 6.49381632e-02  2.97219163e-05 -9.05384639e+01  2.96103466e+00 
 6.68343918e-02  3.33284942e-05 -8.95436861e+01  2.95581927e+00 
 6.87859912e-02  3.73714056e-05 -8.85492114e+01  2.95045663e+00 
 7.07945784e-02  4.19031976e-05 -8.75550567e+01  2.94494289e+00 
 7.28618175e-02  4.69827017e-05 -8.65612403e+01  2.93927412e+00 
 7.49894209e-02  5.26757761e-05 -8.55677811e+01  2.93344631e+00 
 7.71791516e-02  5.90561363e-05 -8.45746994e+01  2.92745539e+00 
 7.94328235e-02  6.62062805e-05 -8.35820162e+01  2.92129719e+00 
 8.17523038e-02  7.42185233e-05 -8.25897538e+01  2.91496751e+00 
 8.41395142e-02  8.31961474e-05 -8.15979357e+01  2.90846205e+00 
 8.65964323e-02  9.32546890e-05 -8.06065864e+01  2.90177646e+00 
 8.91250938e-02  1.04523369e-04 -7.96157320e+01  2.89490633e+00 
 9.17275935e-02  1.17146690e-04 -7.86253996e+01  2.88784718e+00 
 9.44060876e-02  1.31286210e-04 -7.76356178e+01  2.88059449e+00 
 9.71627952e-02  1.47122524e-04 -7.66464167e+01  2.87314368e+00 
 1.00000000e-01  1.64857463e-04 -7.56578278e+01  2.86549012e+00 
 1.02920053e-01  1.84716545e-04 -7.46698841e+01  2.85762915e+00 
 1.05925373e-01  2.06951695e-04 -7.36826202e+01  2.84955605e+00 
 1.09018449e-01  2.31844272e-04 -7.26960726e+01  2.84126612e+00 
 1.12201845e-01  2.59708428e-04 -7.17102791e+01  2.83275458e+00 
 1.15478198e-01  2.90894842e-04 -7.07252796e+01  2.82401669e+00 
 1.18850223e-01  3.25794856e-04 -6.97411155e+01  2.81504766e+00 
 1.22320712e-01  3.64845068e-04 -6.87578304e+01  2.80584272e+00 
 1.25892541e-01  4.08532417e-04 -6.77754695e+01  2.79639713e+00 
 1.29568670e-01  4.57399822e-04 -6.67940802e+01  2.78670615e+00 
 1.33352143e-01  5.12052417e-04 -6.58137116e+01  2.77676508e+00 
 1.37246096e-01  5.73164450e-04 -6.48344151e+01  2.76656929e+00 
 1.41253754e-01  6.41486912e-04 -6.38562440e+01  2.75611416e+00 
 1.45378439e-01  7.17855963e-04 -6.28792538e+01  2.74539520e+00 
 1.49623566e-01  8.03202230e-04 -6.19035019e+01  2.73440797e+00 
 1.53992653e-01  8.98561070e-04 -6.09290480e+01  2.72314815e+00 
 1.58489319e-01  1.00508387e-03 -5.99559539e+01  2.71161153e+00 
 1.63117291e-01  1.12405052e-03 -5.89842834e+01  2.69979405e+00 
 1.67880402e-01  1.25688307e-03 -5.80141025e+01  2.68769177e+00 
 1.72782598e-01  1.40516087e-03 -5.70454791e+01  2.67530097e+00 
 1.77827941e-01  1.57063705e-03 -5.60784833e+01  2.66261807e+00 
 1.83020611e-01  1.75525674e-03 -5.51131870e+01  2.64963973e+00 
 1.88364909e-01  1.96117699e-03 -5.41496642e+01  2.63636283e+00 
 1.93865264e-01  2.19078859e-03 -5.31879906e+01  2.62278447e+00 
 1.99526231e-01  2.44674000e-03 -5.22282436e+01  2.60890204e+00 
 2.05352503e-01  2.73196351e-03 -5.12705021e+01  2.59471321e+00 
 2.11348904e-01  3.04970380e-03 -5.03148468e+01  2.58021595e+00 
 2.17520403e-01  3.40354919e-03 -4.93613594e+01  2.56540853e+00 
 2.23872114e-01  3.79746569e-03 -4.84101228e+01  2.55028960e+00 
 2.30409298e-01  4.23583412e-03 -4.74612211e+01  2.53485811e+00 
 2.37137371e-01  4.72349058e-03 -4.65147389e+01  2.51911341e+00 
 2.44061907e-01  5.26577047e-03 -4.55707615e+01  2.50305524e+00 
 2.51188643e-01  5.86855635e-03 -4.46293744e+01  2.48668370e+00 
 2.58523484e-01  6.53833002e-03 -4.36906633e+01  2.46999932e+00 
 2.66072506e-01  7.28222897e-03 -4.27547134e+01  2.45300304e+00 
 2.73841963e-01  8.10810778e-03 -4.18216097e+01  2.43569619e+00 
 2.81838293e-01  9.02460459e-03 -4.08914363e+01  2.41808055e+00 
 2.90068120e-01  1.00412132e-02 -3.99642762e+01  2.40015831e+00 
 2.98538262e-01  1.11683614e-02 -3.90402108e+01  2.38193206e+00 
 3.07255737e-01  1.24174951e-02 -3.81193201e+01  2.36340481e+00 
 3.16227766e-01  1.38011703e-02 -3.72016817e+01  2.34457996e+00 
 3.25461783e-01  1.53331522e-02 -3.62873710e+01  2.32546130e+00 
 3.34965439e-01  1.70285222e-02 -3.53764608e+01  2.30605298e+00 
 3.44746607e-01  1.89037937e-02 -3.44690206e+01  2.28635949e+00 
 3.54813389e-01  2.09770375e-02 -3.35651169e+01  2.26638565e+00 
 3.65174127e-01  2.32680173e-02 -3.26648124e+01  2.24613653e+00 
 3.75837404e-01  2.57983358e-02 -3.17681662e+01  2.22561750e+00 
 3.86812055e-01  2.85915930e-02 -3.08752329e+01  2.20483413e+00 
 3.98107171e-01  3.16735565e-02 -2.99860634e+01  2.18379215e+00 
 4.09732110e-01  3.50723464e-02 -2.91007036e+01  2.16249745e+00 
 4.21696503e-01  3.88186342e-02 -2.82191950e+01  2.14095601e+00 
 4.34010264e-01  4.29458577e-02 -2.73415744e+01  2.11917384e+00 
 4.46683592e-01  4.74904531e-02 -2.64678737e+01  2.09715695e+00 
 4.59726989e-01  5.24921055e-02 -2.55981201e+01  2.07491131e+00 
 4.73151259e-01  5.79940191e-02 -2.47323359e+01  2.05244275e+00 
 4.86967525e-01  6.40432085e-02 -2.38705384e+01  2.02975699e+00 
 5.01187234e-01  7.06908130e-02 -2.30127405e+01  2.00685950e+00 
 5.15822165e-01  7.79924352e-02 -2.21589504e+01  1.98375552e+00 
 5.30884444e-01  8.60085058e-02 -2.13091719e+01  1.96044997e+00 
 5.46386550e-01  9.48046762e-02 -2.04634048e+01  1.93694742e+00 
 5.62341325e-01  1.04452241e-01 -1.96216447e+01  1.91325204e+00 
 5.78761988e-01  1.15028594e-01 -1.87838838e+01  1.88936757e+00 
 5.95662144e-01  1.26617711e-01 -1.79501108e+01  1.86529724e+00 
 6.13055792e-01  1.39310681e-01 -1.71203117e+01  1.84104380e+00 
 6.30957344e-01  1.53206264e-01 -1.62944696e+01  1.81660943e+00 
 6.49381632e-01  1.68411491e-01 -1.54725656e+01  1.79199575e+00 
 6.68343918e-01  1.85042311e-01 -1.46545791e+01  1.76720377e+00 
 6.87859912e-01  2.03224281e-01 -1.38404881e+01  1.74223387e+00 
 7.07945784e-01  2.23093294e-01 -1.30302697e+01  1.71708582e+00 
 7.28618175e-01  2.44796368e-01 -1.22239006e+01  1.69175871e+00 
 7.49894209e-01  2.68492473e-01 -1.14213577e+01  1.66625101e+00 
 7.71791516e-01  2.94353420e-01 -1.06226183e+01  1.64056051e+00 
 7.94328235e-01  3.22564795e-01 -9.82766067e+00  1.61468435e+00 
 8.17523038e-01  3.53326953e-01 -9.03646464e+00  1.58861904e+00 
 8.41395142e-01  3.86856061e-01 -8.24901189e+00  1.56236043e+00 
 8.65964323e-01  4.23385203e-01 -7.46528648e+00  1.53590374e+00 
 8.91250938e-01  4.63165535e-01 -6.68527530e+00  1.50924361e+00 
 9.17275935e-01  5.06467496e-01 -5.90896843e+00  1.48237407e+00 
 9.44060876e-01  5.53582075e-01 -5.13635961e+00  1.45528858e+00 
 9.71627952e-01  6.04822123e-01 -4.36744663e+00  1.42798010e+00 
 1.00000000e+00  6.60523717e-01 -3.60223168e+00  1.40044104e+00 
 1.02920053e+00  7.21047562e-01 -2.84072174e+00  1.37266337e+00 
 1.05925373e+00  7.86780439e-01 -2.08292892e+00  1.34463860e+00 
 1.09018449e+00  8.58136673e-01 -1.32887076e+00  1.31635787e+00 
 1.12201845e+00  9.35559625e-01 -5.78570576e-01  1.28781192e+00 
 1.15478198e+00  1.01952320e+00  1.67942277e-01  1.25899121e+00 
 1.18850223e+00  1.11053335e+00  9.10632138e-01  1.22988590e+00 
 1.22320712e+00  1.20912956e+00  1.64945679e+00  1.20048595e+00 
 1.25892541e+00  1.31588629e+00  2.38436723e+00  1.17078113e+00 
 1.29568670e+00  1.43141437e+00  3.11530748e+00  1.14076107e+00 
 1.33352143e+00  1.55636236e+00  3.84221441e+00  1.11041535e+00 
 1.37246096e+00  1.69141772e+00  4.56501754e+00  1.07973351e+00 
 1.41253754e+00  1.83730792e+00  5.28363896e+00  1.04870514e+00 
 1.45378439e+00  1.99480138e+00  5.99799319e+00  1.01731991e+00 
 1.49623566e+00  2.16470816e+00  6.70798710e+00  9.85567644e-01 
 1.53992653e+00  2.34788052e+00  7.41351986e+00  9.53438386e-01 
 1.58489319e+00  2.54521308e+00  8.11448291e+00  9.20922445e-01 
 1.63117291e+00  2.75764272e+00  8.81075997e+00  8.88010471e-01 
 1.67880402e+00  2.98614816e+00  9.50222704e+00  8.54693512e-01 
 1.72782598e+00  3.23174902e+00  1.01887525e+01  8.20963089e-01 
 1.77827941e+00  3.49550448e+00  1.08701973e+01  7.86811253e-01 
 1.83020611e+00  3.77851141e+00  1.15464148e+01  7.52230659e-01 
 1.88364909e+00  4.08190191e+00  1.22172513e+01  7.17214635e-01 
 1.93865264e+00  4.40684024e+00  1.28825461e+01  6.81757246e-01 
 1.99526231e+00  4.75451904e+00  1.35421318e+01  6.45853366e-01 
 2.05352503e+00  5.12615494e+00  1.41958346e+01  6.09498749e-01 
 2.11348904e+00  5.52298320e+00  1.48434744e+01  5.72690091e-01 
 2.17520403e+00  5.94625180e+00  1.54848659e+01  5.35425104e-01 
 2.23872114e+00  6.39721449e+00  1.61198182e+01  4.97702578e-01 
 2.30409298e+00  6.87712313e+00  1.67481360e+01  4.59522444e-01 
 2.37137371e+00  7.38721913e+00  1.73696196e+01  4.20885837e-01 
 2.44061907e+00  7.92872408e+00  1.79840661e+01  3.81795154e-01 
 2.51188643e+00  8.50282953e+00  1.85912694e+01  3.42254110e-01 
 2.58523484e+00  9.11068606e+00  1.91910216e+01  3.02267782e-01 
 2.66072506e+00  9.75339161e+00  1.97831132e+01  2.61842661e-01 
 2.73841963e+00  1.04319792e+01  2.03673343e+01  2.20986686e-01 
 2.81838293e+00  1.11474042e+01  2.09434750e+01  1.79709282e-01 
 2.90068120e+00  1.19005311e+01  2.15113269e+01  1.38021381e-01 
 2.98538262e+00  1.26921202e+01  2.20706836e+01  9.59354409e-02 
 3.07255737e+00  1.35228142e+01  2.26213417e+01  5.34654582e-02 
 3.16227766e+00  1.43931249e+01  2.31631019e+01  1.06269664e-02 
 3.25461783e+00  1.53034202e+01  2.36957701e+01 -3.25629717e-02 
 3.34965439e+00  1.62539120e+01  2.42191581e+01 -7.60857823e-02 
 3.44746607e+00  1.72446443e+01  2.47330848e+01 -1.19921409e-01 
 3.54813389e+00  1.82754832e+01  2.52373774e+01 -1.64048350e-01 
 3.65174127e+00  1.93461073e+01  2.57318718e+01 -2.08443710e-01 
 3.75837404e+00  2.04560003e+01  2.62164144e+01 -2.53083256e-01 
 3.86812055e+00  2.16044452e+01  2.66908624e+01 -2.97941491e-01 
 3.98107171e+00  2.27905199e+01  2.71550847e+01 -3.42991728e-01 
 4.09732110e+00  2.40130958e+01  2.76089631e+01 -3.88206185e-01 
 4.21696503e+00  2.52708378e+01  2.80523928e+01 -4.33556079e-01 
 4.34010264e+00  2.65622076e+01  2.84852833e+01 -4.79011736e-01 
 4.46683592e+00  2.78854680e+01  2.89075587e+01 -5.24542699e-01 
 4.59726989e+00  2.92386913e+01  2.93191586e+01 -5.70117855e-01 
 4.73151259e+00  3.06197689e+01  2.97200382e+01 -6.15705556e-01 
 4.86967525e+00  3.20264232e+01  3.01101688e+01 -6.61273753e-01 
 5.01187234e+00  3.34562225e+01  3.04895381e+01 -7.06790126e-01 
 5.15822165e+00  3.49065972e+01  3.08581503e+01 -7.52222222e-01 
 5.30884444e+00  3.63748577e+01  3.12160261e+01 -7.97537591e-01 
 5.46386550e+00  3.78582139e+01  3.15632024e+01 -8.42703918e-01 
 5.62341325e+00  3.93537965e+01  3.18997327e+01 -8.87689164e-01 
 5.78761988e+00  4.08586778e+01  3.22256862e+01 -9.32461689e-01 
 5.95662144e+00  4.23698947e+01  3.25411477e+01 -9.76990384e-01 
 6.13055792e+00  4.38844702e+01  3.28462172e+01 -1.02124479e+00 
 6.30957344e+00  4.53994361e+01  3.31410092e+01 -1.06519521e+00 
 6.49381632e+00  4.69118546e+01  3.34256521e+01 -1.10881282e+00 
