 frequency       gain_vv         gain_db         phase_deg      
 1.00000000e-03  3.72487199e-13 -2.48577773e+02  3.14050237e+00 
 1.02920053e-03  4.17937507e-13 -2.47577773e+02  3.14047053e+00 
 1.05925373e-03  4.68933591e-13 -2.46577773e+02  3.14043777e+00 
 1.09018449e-03  5.26152136e-13 -2.45577773e+02  3.14040404e+00 
 1.12201845e-03  5.90352399e-13 -2.44577773e+02  3.14036934e+00 
 1.15478198e-03  6.62386278e-13 -2.43577773e+02  3.14033361e+00 
 1.18850223e-03  7.43209617e-13 -2.42577774e+02  3.14029685e+00 
 1.22320712e-03  8.33894893e-13 -2.41577774e+02  3.14025901e+00 
 1.25892541e-03  9.35645444e-13 -2.40577774e+02  3.14022007e+00 
 1.29568670e-03  1.04981144e-12 -2.39577774e+02  3.14017999e+00 
 1.33352143e-03  1.17790779e-12 -2.38577774e+02  3.14013874e+00 
 1.37246096e-03  1.32163425e-12 -2.37577774e+02  3.14009628e+00 
 1.41253754e-03  1.48289799e-12 -2.36577774e+02  3.14005259e+00 
 1.45378439e-03  1.66383887e-12 -2.35577775e+02  3.14000762e+00 
 1.49623566e-03  1.86685788e-12 -2.34577775e+02  3.13996133e+00 
 1.53992653e-03  2.09464894e-12 -2.33577775e+02  3.13991370e+00 
 1.58489319e-03  2.35023471e-12 -2.32577775e+02  3.13986467e+00 
 1.63117291e-03  2.63700664e-12 -2.31577776e+02  3.13981421e+00 
 1.67880402e-03  2.95877003e-12 -2.30577776e+02  3.13976228e+00 
 1.72782598e-03  3.31979448e-12 -2.29577776e+02  3.13970883e+00 
 1.77827941e-03  3.72487055e-12 -2.28577776e+02  3.13965383e+00 
 1.83020611e-03  4.17937336e-12 -2.27577777e+02  3.13959721e+00 
 1.88364909e-03  4.68933387e-12 -2.26577777e+02  3.13953894e+00 
 1.93865264e-03  5.26151894e-12 -2.25577777e+02  3.13947897e+00 
 1.99526231e-03  5.90352112e-12 -2.24577778e+02  3.13941725e+00 
 2.05352503e-03  6.62385936e-12 -2.23577778e+02  3.13935373e+00 
 2.11348904e-03  7.43209211e-12 -2.22577778e+02  3.13928835e+00 
 2.17520403e-03  8.33894411e-12 -2.21577779e+02  3.13922107e+00 
 2.23872114e-03  9.35644871e-12 -2.20577779e+02  3.13915181e+00 
 2.30409298e-03  1.04981076e-11 -2.19577780e+02  3.13908054e+00 
 2.37137371e-03  1.17790698e-11 -2.18577780e+02  3.13900718e+00 
 2.44061907e-03  1.32163329e-11 -2.17577781e+02  3.13893169e+00 
 2.51188643e-03  1.48289684e-11 -2.16577781e+02  3.13885399e+00 
 2.58523484e-03  1.66383751e-11 -2.15577782e+02  3.13877402e+00 
 2.66072506e-03  1.86685626e-11 -2.14577782e+02  3.13869171e+00 
 2.73841963e-03  2.09464702e-11 -2.13577783e+02  3.13860700e+00 
 2.81838293e-03  2.35023242e-11 -2.12577784e+02  3.13851982e+00 
 2.90068120e-03  2.63700393e-11 -2.11577784e+02  3.13843009e+00 
 2.98538262e-03  2.95876681e-11 -2.10577785e+02  3.13833774e+00 
 3.07255737e-03  3.31979065e-11 -2.09577786e+02  3.13824270e+00 
 3.16227766e-03  3.72486600e-11 -2.08577787e+02  3.13814488e+00 
 3.25461783e-03  4.17936795e-11 -2.07577788e+02  3.13804420e+00 
 3.34965439e-03  4.68932744e-11 -2.06577789e+02  3.13794058e+00 
 3.44746607e-03  5.26151130e-11 -2.05577790e+02  3.13783394e+00 
 3.54813389e-03  5.90351203e-11 -2.04577791e+02  3.13772418e+00 
 3.65174127e-03  6.62384856e-11 -2.03577792e+02  3.13761122e+00 
 3.75837404e-03  7.43207927e-11 -2.02577793e+02  3.13749496e+00 
 3.86812055e-03  8.33892885e-11 -2.01577795e+02  3.13737531e+00 
 3.98107171e-03  9.35643058e-11 -2.00577796e+02  3.13725216e+00 
 4.09732110e-03  1.04980860e-10 -1.99577797e+02  3.13712542e+00 
 4.21696503e-03  1.17790441e-10 -1.98577799e+02  3.13699497e+00 
 4.34010264e-03  1.32163024e-10 -1.97577801e+02  3.13686072e+00 
 4.46683592e-03  1.48289322e-10 -1.96577802e+02  3.13672254e+00 
 4.59726989e-03  1.66383321e-10 -1.95577804e+02  3.13658033e+00 
 4.73151259e-03  1.86685115e-10 -1.94577806e+02  3.13643397e+00 
 4.86967525e-03  2.09464095e-10 -1.93577808e+02  3.13628333e+00 
 5.01187234e-03  2.35022521e-10 -1.92577810e+02  3.13612830e+00 
 5.15822165e-03  2.63699535e-10 -1.91577813e+02  3.13596874e+00 
 5.30884444e-03  2.95875661e-10 -1.90577815e+02  3.13580452e+00 
 5.46386550e-03  3.31977853e-10 -1.89577818e+02  3.13563550e+00 
 5.62341325e-03  3.72485160e-10 -1.88577821e+02  3.13546155e+00 
 5.78761988e-03  4.17935083e-10 -1.87577823e+02  3.13528252e+00 
 5.95662144e-03  4.68930710e-10 -1.86577827e+02  3.13509826e+00 
 6.13055792e-03  5.26148712e-10 -1.85577830e+02  3.13490862e+00 
 6.30957344e-03  5.90348330e-10 -1.84577833e+02  3.13471344e+00 
 6.49381632e-03  6.62381441e-10 -1.83577837e+02  3.13451257e+00 
 6.68343918e-03  7.43203868e-10 -1.82577841e+02  3.13430582e+00 
 6.87859912e-03  8.33888061e-10 -1.81577845e+02  3.13409305e+00 
 7.07945784e-03  9.35637324e-10 -1.80577849e+02  3.13387405e+00 
 7.28618175e-03  1.04980179e-09 -1.79577854e+02  3.13364867e+00 
 7.49894209e-03  1.17789632e-09 -1.78577859e+02  3.13341670e+00 
 7.71791516e-03  1.32162062e-09 -1.77577864e+02  3.13317796e+00 
 7.94328235e-03  1.48288178e-09 -1.76577869e+02  3.13293225e+00 
 8.17523038e-03  1.66381962e-09 -1.75577875e+02  3.13267936e+00 
 8.41395142e-03  1.86683499e-09 -1.74577881e+02  3.13241909e+00 
 8.65964323e-03  2.09462174e-09 -1.73577888e+02  3.13215122e+00 
 8.91250938e-03  2.35020238e-09 -1.72577895e+02  3.13187553e+00 
 9.17275935e-03  2.63696822e-09 -1.71577902e+02  3.13159178e+00 
 9.44060876e-03  2.95872437e-09 -1.70577910e+02  3.13129975e+00 
 9.71627952e-03  3.31974021e-09 -1.69577918e+02  3.13099920e+00 
 1.00000000e-02  3.72480606e-09 -1.68577927e+02  3.13068987e+00 
 1.02920053e-02  4.17929670e-09 -1.67577936e+02  3.13037150e+00 
 1.05925373e-02  4.68924277e-09 -1.66577946e+02  3.13004384e+00 
 1.09018449e-02  5.26141067e-09 -1.65577956e+02  3.12970661e+00 
 1.12201845e-02  5.90339243e-09 -1.64577967e+02  3.12935954e+00 
 1.15478198e-02  6.62370641e-09 -1.63577979e+02  3.12900233e+00 
 1.18850223e-02  7.43191033e-09 -1.62577991e+02  3.12863469e+00 
 1.22320712e-02  8.33872806e-09 -1.61578004e+02  3.12825631e+00 
 1.25892541e-02  9.35619194e-09 -1.60578018e+02  3.12786689e+00 
 1.29568670e-02  1.04978024e-08 -1.59578032e+02  3.12746610e+00 
 1.33352143e-02  1.17787071e-08 -1.58578048e+02  3.12705360e+00 
 1.37246096e-02  1.32159018e-08 -1.57578064e+02  3.12662906e+00 
 1.41253754e-02  1.48284561e-08 -1.56578081e+02  3.12619212e+00 
 1.45378439e-02  1.66377662e-08 -1.55578100e+02  3.12574243e+00 
 1.49623566e-02  1.86678389e-08 -1.54578119e+02  3.12527960e+00 
 1.53992653e-02  2.09456101e-08 -1.53578140e+02  3.12480326e+00 
 1.58489319e-02  2.35013020e-08 -1.52578162e+02  3.12431301e+00 
 1.63117291e-02  2.63688244e-08 -1.51578185e+02  3.12380845e+00 
 1.67880402e-02  2.95862242e-08 -1.50578209e+02  3.12328915e+00 
 1.72782598e-02  3.31961904e-08 -1.49578235e+02  3.12275469e+00 
 1.77827941e-02  3.72466205e-08 -1.48578263e+02  3.12220463e+00 
 1.83020611e-02  4.17912555e-08 -1.47578292e+02  3.12163850e+00 
 1.88364909e-02  4.68903935e-08 -1.46578322e+02  3.12105585e+00 
 1.93865264e-02  5.26116890e-08 -1.45578355e+02  3.12045618e+00 
 1.99526231e-02  5.90310510e-08 -1.44578390e+02  3.11983901e+00 
 2.05352503e-02  6.62336492e-08 -1.43578426e+02  3.11920381e+00 
 2.11348904e-02  7.43150447e-08 -1.42578465e+02  3.11855007e+00 
 2.17520403e-02  8.33824570e-08 -1.41578506e+02  3.11787724e+00 
 2.23872114e-02  9.35561865e-08 -1.40578550e+02  3.11718477e+00 
 2.30409298e-02  1.04971210e-07 -1.39578596e+02  3.11647208e+00 
 2.37137371e-02  1.17778973e-07 -1.38578645e+02  3.11573858e+00 
 2.44061907e-02  1.32149394e-07 -1.37578697e+02  3.11498366e+00 
 2.51188643e-02  1.48273123e-07 -1.36578751e+02  3.11420670e+00 
 2.58523484e-02  1.66364068e-07 -1.35578809e+02  3.11340707e+00 
 2.66072506e-02  1.86662233e-07 -1.34578871e+02  3.11258408e+00 
 2.73841963e-02  2.09436899e-07 -1.33578936e+02  3.11173707e+00 
 2.81838293e-02  2.34990199e-07 -1.32579005e+02  3.11086533e+00 
 2.90068120e-02  2.63661121e-07 -1.31579078e+02  3.10996813e+00 
 2.98538262e-02  2.95830007e-07 -1.30579156e+02  3.10904475e+00 
 3.07255737e-02  3.31923593e-07 -1.29579238e+02  3.10809441e+00 
 3.16227766e-02  3.72420672e-07 -1.28579324e+02  3.10711632e+00 
 3.25461783e-02  4.17858440e-07 -1.27579416e+02  3.10610969e+00 
 3.34965439e-02  4.68839620e-07 -1.26579514e+02  3.10507366e+00 
 3.44746607e-02  5.26040453e-07 -1.25579617e+02  3.10400739e+00 
 3.54813389e-02  5.90219665e-07 -1.24579726e+02  3.10291000e+00 
 3.65174127e-02  6.62228525e-07 -1.23579842e+02  3.10178057e+00 
 3.75837404e-02  7.43022130e-07 -1.22579965e+02  3.10061817e+00 
 3.86812055e-02  8.33672068e-07 -1.21580095e+02  3.09942185e+00 
 3.98107171e-02  9.35380620e-07 -1.20580233e+02  3.09819060e+00 
 4.09732110e-02  1.04949670e-06 -1.19580378e+02  3.09692341e+00 
 4.21696503e-02  1.17753372e-06 -1.18580533e+02  3.09561924e+00 
 4.34010264e-02  1.32118968e-06 -1.17580697e+02  3.09427701e+00 
 4.46683592e-02  1.48236963e-06 -1.16580870e+02  3.09289559e+00 
 4.59726989e-02  1.66321093e-06 -1.15581053e+02  3.09147386e+00 
 4.73151259e-02  1.86611159e-06 -1.14581248e+02  3.09001064e+00 
 4.86967525e-02  2.09376199e-06 -1.13581454e+02  3.08850472e+00 
 5.01187234e-02  2.34918059e-06 -1.12581672e+02  3.08695485e+00 
 5.15822165e-02  2.63575386e-06 -1.11581903e+02  3.08535975e+00 
 5.30884444e-02  2.95728114e-06 -1.10582148e+02  3.08371810e+00 
 5.46386550e-02  3.31802497e-06 -1.09582407e+02  3.08202856e+00 
 5.62341325e-02  3.72276756e-06 -1.08582682e+02  3.08028971e+00 
 5.78761988e-02  4.17687403e-06 -1.07582972e+02  3.07850013e+00 
 5.95662144e-02  4.68636351e-06 -1.06583281e+02  3.07665834e+00 
 6.13055792e-02  5.25798879e-06 -1.05583607e+02  3.07476282e+00 
 6.30957344e-02  5.89932568e-06 -1.04583953e+02  3.07281200e+00 
 6.49381632e-02  6.61887328e-06 -1.03584319e+02  3.07080428e+00 
 6.68343918e-02  7.42616640e-06 -1.02584706e+02  3.06873799e+00 
 6.87859912e-02  8.33190170e-06 -1.01585117e+02  3.06661143e+00 
 7.07945784e-02  9.34807920e-06 -1.00585552e+02  3.06442285e+00 
 7.28618175e-02  1.04881609e-05 -9.95860132e+01  3.06217045e+00 
 7.49894209e-02  1.17672488e-05 -9.85865013e+01  3.05985237e+00 
 7.71791516e-02  1.32022844e-05 -9.75870183e+01  3.05746669e+00 
 7.94328235e-02  1.48122728e-05 -9.65875660e+01  3.05501146e+00 
 8.17523038e-02  1.66185336e-05 -9.55881460e+01  3.05248465e+00 
 8.41395142e-02  1.86449826e-05 -9.45887604e+01  3.04988419e+00 
 8.65964323e-02  2.09184473e-05 -9.35894111e+01  3.04720792e+00 
 8.91250938e-02  2.34690215e-05 -9.25901003e+01  3.04445366e+00 
 9.17275935e-02  2.63304622e-05 -9.15908304e+01  3.04161914e+00 
 9.44060876e-02  2.95406346e-05 -9.05916036e+01  3.03870203e+00 
 9.71627952e-02  3.31420122e-05 -8.95924225e+01  3.03569993e+00 
 1.00000000e-01  3.71822359e-05 -8.85932900e+01  3.03261038e+00 
 1.02920053e-01  4.17147424e-05 -8.75942087e+01  3.02943084e+00 
 1.05925373e-01  4.67994677e-05 -8.65951817e+01  3.02615871e+00 
 1.09018449e-01  5.25036363e-05 -8.55962123e+01  3.02279132e+00 
 1.12201845e-01  5.89026461e-05 -8.45973039e+01  3.01932589e+00 
 1.15478198e-01  6.60810600e-05 -8.35984600e+01  3.01575959e+00 
 1.18850223e-01  7.41337176e-05 -8.25996844e+01  3.01208952e+00 
 1.22320712e-01  8.31669814e-05 -8.16009812e+01  3.00831266e+00 
 1.25892541e-01  9.33001337e-05 -8.06023547e+01  3.00442594e+00 
 1.29568670e-01  1.04666942e-04 -7.96038093e+01  3.00042619e+00 
 1.33352143e-01  1.17417413e-04 -7.86053499e+01  2.99631015e+00 
 1.37246096e-01  1.31719759e-04 -7.76069814e+01  2.99207446e+00 
 1.41253754e-01  1.47762603e-04 -7.66087094e+01  2.98771569e+00 
 1.45378439e-01  1.65757441e-04 -7.56105393e+01  2.98323029e+00 
 1.49623566e-01  1.85941416e-04 -7.46124773e+01  2.97861462e+00 
 1.53992653e-01  2.08580408e-04 -7.36145297e+01  2.97386494e+00 
 1.58489319e-01  2.33972512e-04 -7.26167033e+01  2.96897742e+00 
 1.63117291e-01  2.62451917e-04 -7.16190050e+01  2.96394809e+00 
 1.67880402e-01  2.94393267e-04 -7.06214425e+01  2.95877290e+00 
 1.72782598e-01  3.30216530e-04 -6.96240238e+01  2.95344768e+00 
 1.77827941e-01  3.70392460e-04 -6.86267573e+01  2.94796815e+00 
 1.83020611e-01  4.15448706e-04 -6.76296518e+01  2.94232990e+00 
 1.88364909e-01  4.65976653e-04 -6.66327168e+01  2.93652842e+00 
 1.93865264e-01  5.22639077e-04 -6.56359624e+01  2.93055907e+00 
 1.99526231e-01  5.86178716e-04 -6.46393991e+01  2.92441708e+00 
 2.05352503e-01  6.57427852e-04 -6.36430380e+01  2.91809756e+00 
 2.11348904e-01  7.37319040e-04 -6.26468910e+01  2.91159549e+00 
 2.17520403e-01  8.26897104e-04 -6.16509706e+01  2.90490572e+00 
 2.23872114e-01  9.27332548e-04 -6.06552899e+01  2.89802294e+00 
 2.30409298e-01  1.03993656e-03 -5.96598631e+01  2.89094175e+00 
 2.37137371e-01  1.16617779e-03 -5.86647047e+01  2.88365657e+00 
 2.44061907e-01  1.30770105e-03 -5.76698305e+01  2.87616169e+00 
 2.51188643e-01  1.46634833e-03 -5.66752570e+01  2.86845126e+00 
 2.58523484e-01  1.64418212e-03 -5.56810016e+01  2.86051928e+00 
 2.66072506e-01  1.84351156e-03 -5.46870827e+01  2.85235960e+00 
 2.73841963e-01  2.06692162e-03 -5.36935198e+01  2.84396591e+00 
 2.81838293e-01  2.31730565e-03 -5.27003336e+01  2.83533176e+00 
 2.90068120e-01  2.59790170e-03 -5.17075457e+01  2.82645054e+00 
 2.98538262e-01  2.91233309e-03 -5.07151791e+01  2.81731547e+00 
 3.07255737e-01  3.26465354e-03 -4.97232580e+01  2.80791963e+00 
 3.16227766e-01  3.65939757e-03 -4.87318081e+01  2.79825594e+00 
 3.25461783e-01  4.10163664e-03 -4.77408563e+01  2.78831713e+00 
 3.34965439e-01  4.59704168e-03 -4.67504312e+01  2.77809580e+00 
 3.44746607e-01  5.15195264e-03 -4.57605628e+01  2.76758437e+00 
 3.54813389e-01  5.77345601e-03 -4.47712828e+01  2.75677510e+00 
 3.65174127e-01  6.46947091e-03 -4.37826247e+01  2.74566008e+00 
 3.75837404e-01  7.24884491e-03 -4.27946238e+01  2.73423126e+00 
 3.86812055e-01  8.12146047e-03 -4.18073173e+01  2.72248041e+00 
 3.98107171e-01  9.09835302e-03 -4.08207443e+01  2.71039912e+00 
 4.09732110e-01  1.01918422e-02 -3.98349462e+01  2.69797886e+00 
 4.21696503e-01  1.14156774e-02 -3.88499663e+01  2.68521092e+00 
 4.34010264e-01  1.27851986e-02 -3.78658504e+01  2.67208644e+00 
 4.46683592e-01  1.43175156e-02 -3.68826467e+01  2.65859639e+00 
 4.59726989e-01  1.60317047e-02 -3.59004059e+01  2.64473163e+00 
 4.73151259e-01  1.79490282e-02 -3.49191812e+01  2.63048285e+00 
 4.86967525e-01  2.00931750e-02 -3.39390287e+01  2.61584061e+00 
 5.01187234e-01  2.24905277e-02 -3.29600071e+01  2.60079533e+00 
 5.15822165e-01  2.51704561e-02 -3.19821783e+01  2.58533733e+00 
 5.30884444e-01  2.81656412e-02 -3.10056072e+01  2.56945679e+00 
 5.46386550e-01  3.15124313e-02 -3.00303618e+01  2.55314380e+00 
 5.62341325e-01  3.52512340e-02 -2.90565135e+01  2.53638833e+00 
 5.78761988e-01  3.94269459e-02 -2.80841373e+01  2.51918028e+00 
 5.95662144e-01  4.40894246e-02 -2.71133114e+01  2.50150949e+00 
 6.13055792e-01  4.92940047e-02 -2.61441180e+01  2.48336570e+00 
 6.30957344e-01  5.51020626e-02 -2.51766429e+01  2.46473863e+00 
 6.49381632e-01  6.15816332e-02 -2.42109759e+01  2.44561797e+00 
 6.68343918e-01  6.88080817e-02 -2.32472110e+01  2.42599339e+00 
 6.87859912e-01  7.68648350e-02 -2.22854460e+01  2.40585455e+00 
 7.07945784e-01  8.58441764e-02 -2.13257832e+01  2.38519115e+00 
 7.28618175e-01  9.58481065e-02 -2.03683292e+01  2.36399294e+00 
 7.49894209e-01  1.06989275e-01 -1.94131951e+01  2.34224971e+00 
 7.71791516e-01  1.19391988e-01 -1.84604964e+01  2.31995135e+00 
 7.94328235e-01  1.33193287e-01 -1.75103532e+01  2.29708789e+00 
 8.17523038e-01  1.48544120e-01 -1.65628907e+01  2.27364945e+00 
 8.41395142e-01  1.65610583e-01 -1.56182383e+01  2.24962636e+00 
 8.65964323e-01  1.84575254e-01 -1.46765305e+01  2.22500913e+00 
 8.91250938e-01  2.05638613e-01 -1.37379067e+01  2.19978849e+00 
 9.17275935e-01  2.29020549e-01 -1.28025110e+01  2.17395544e+00 
 9.44060876e-01  2.54961955e-01 -1.18704924e+01  2.14750125e+00 
 9.71627952e-01  2.83726406e-01 -1.09420049e+01  2.12041752e+00 
 1.00000000e+00  3.15601926e-01 -1.00172071e+01  2.09269622e+00 
 1.02920053e+00  3.50902825e-01 -9.09626271e+00  2.06432968e+00 
 1.05925373e+00  3.89971620e-01 -8.17933994e+00  2.03531067e+00 
 1.09018449e+00  4.33181012e-01 -7.26661176e+00  2.00563241e+00 
 1.12201845e+00  4.80935920e-01 -6.35825570e+00  1.97528862e+00 
 1.15478198e+00  5.33675558e-01 -5.45445374e+00  1.94427354e+00 
 1.18850223e+00  5.91875539e-01 -4.55539216e+00  1.91258197e+00 
 1.22320712e+00  6.56049983e-01 -3.66126142e+00  1.88020933e+00 
 1.25892541e+00  7.26753617e-01 -2.77225596e+00  1.84715164e+00 
 1.29568670e+00  8.04583830e-01 -1.88857400e+00  1.81340560e+00 
 1.33352143e+00  8.90182664e-01 -1.01041735e+00  1.77896859e+00 
 1.37246096e+00  9.84238710e-01 -1.37991166e-01  1.74383876e+00 
 1.41253754e+00  1.08748886e+00  7.28496299e-01  1.70801496e+00 
 1.45378439e+00  1.20071987e+00  1.58883395e+00  1.67149686e+00 
 1.49623566e+00  1.32476976e+00  2.44280811e+00  1.63428495e+00 
 1.53992653e+00  1.46052886e+00  3.29020286e+00  1.59638053e+00 
 1.58489319e+00  1.60894061e+00  4.13080028e+00  1.55778579e+00 
 1.63117291e+00  1.77100195e+00  4.96438080e+00  1.51850379e+00 
 1.67880402e+00  1.94776328e+00  5.79072349e+00  1.47853851e+00 
 1.72782598e+00  2.14032794e+00  6.60960642e+00  1.43789485e+00 
 1.77827941e+00  2.34985113e+00  7.42080700e+00  1.39657864e+00 
 1.83020611e+00  2.57753822e+00  8.22410227e+00  1.35459671e+00 
 1.88364909e+00  2.82464235e+00  9.01926933e+00  1.31195683e+00 
 1.93865264e+00  3.09246135e+00  9.80608561e+00  1.26866778e+00 
 1.99526231e+00  3.38233380e+00  1.05843293e+01  1.22473935e+00 
 2.05352503e+00  3.69563428e+00  1.13537797e+01  1.18018234e+00 
 2.11348904e+00  4.03376770e+00  1.21142177e+01  1.13500857e+00 
 2.17520403e+00  4.39816267e+00  1.28654258e+01  1.08923092e+00 
 2.23872114e+00  4.79026396e+00  1.36071889e+01  1.04286329e+00 
 2.30409298e+00  5.21152393e+00  1.43392947e+01  9.95920666e-01 
 2.37137371e+00  5.66339294e+00  1.50615339e+01  9.48419069e-01 
 2.44061907e+00  6.14730885e+00  1.57737007e+01  9.00375605e-01 
 2.51188643e+00  6.66468550e+00  1.64755932e+01  8.51808447e-01 
 2.58523484e+00  7.21690038e+00  1.71670142e+01  8.02736846e-01 
 2.66072506e+00  7.80528137e+00  1.78477713e+01  7.53181126e-01 
 2.73841963e+00  8.43109285e+00  1.85176774e+01  7.03162688e-01 
 2.81838293e+00  9.09552117e+00  1.91765518e+01  6.52703999e-01 
 2.90068120e+00  9.79965966e+00  1.98242199e+01  6.01828591e-01 
 2.98538262e+00  1.05444934e+01  2.04605144e+01  5.50561043e-01 
 3.07255737e+00  1.13308837e+01  2.10852757e+01  4.98926970e-01 
 3.16227766e+00  1.21595533e+01  2.16983524e+01  4.46952998e-01 
 3.25461783e+00  1.30310710e+01  2.22996022e+01  3.94666743e-01 
 3.34965439e+00  1.39458377e+01  2.28888921e+01  3.42096774e-01 
 3.44746607e+00  1.49040731e+01  2.34660994e+01  2.89272578e-01 
 3.54813389e+00  1.59058033e+01  2.40311121e+01  2.36224515e-01 
 3.65174127e+00  1.69508501e+01  2.45838297e+01  1.82983767e-01 
 3.75837404e+00  1.80388221e+01  2.51241635e+01  1.29582278e-01 
 3.86812055e+00  1.91691068e+01  2.56520376e+01  7.60526913e-02 
 3.98107171e+00  2.03408664e+01  2.61673890e+01  2.24282738e-02 
 4.09732110e+00  2.15530344e+01  2.66701684e+01 -3.12571607e-02 
 4.21696503e+00  2.28043155e+01  2.71603408e+01 -8.49693389e-02 
 4.34010264e+00  2.40931881e+01  2.76378854e+01 -1.38673620e-01 
 4.46683592e+00  2.54179091e+01  2.81027964e+01 -1.92335094e-01 
 4.59726989e+00  2.67765215e+01  2.85550831e+01 -2.45918683e-01 
 4.73151259e+00  2.81668648e+01  2.89947702e+01 -2.99389251e-01 
 4.86967525e+00  2.95865880e+01  2.94218977e+01 -3.52711712e-01 
 5.01187234e+00  3.10331646e+01  2.98365213e+01 -4.05851145e-01 
 5.15822165e+00  3.25039100e+01  3.02387121e+01 -4.58772906e-01 
 5.30884444e+00  3.39960013e+01  3.06285567e+01 -5.11442745e-01 
 5.46386550e+00  3.55064979e+01  3.10061568e+01 -5.63826919e-01 
 5.62341325e+00  3.70323641e+01  3.13716288e+01 -6.15892302e-01 
 5.78761988e+00  3.85704928e+01  3.17251038e+01 -6.67606501e-01 
 5.95662144e+00  4.01177289e+01  3.20667268e+01 -7.18937951e-01 
 6.13055792e+00  4.16708944e+01  3.23966564e+01 -7.69856024e-01 
 6.30957344e+00  4.32268118e+01  3.27150641e+01 -8.20331122e-01 
 6.49381632e+00  4.47823285e+01  3.30221334e+01 -8.70334760e-01 
